#LICA Lamps Spectra Database
#Website 1: https://guaix.fis.ucm.es/lamps_spectra
#Website 2: http://carlostapia.es/lamparas/lamps.html
#Latest update: 2017/006/28
#Tester: Carlos Eugenio Tapia Ayuga
#Correct for Electrical Dark: Yes (JAZA2310)
#Correct for Detector Non-linearity: Yes (JAZA2310)
#Correct for Flux: Yes
#Start wavelength (nm): 300
#End wavelength (nm): 900
#Steps (nm):	1
#Locus: D65 sRGB Gamma 1 CIE1931
#XYZ coordinates: 0.4247	0.5979	0.0164
#xyY coordinates: 0.4088	0.5755	0.5979
#sRGB: 115	181	0
#CCT Lindbloom (K):	4349
#CCT McCamy (K):	4309
#CCT Hernández-Andrés (K):	4209
#Melatonin: 0.127
#Chlorophyll a: 0.091
#Chlorophyll b: 0.156
#Beta Carotene: 0.093
#Family and genus: Lampyridae
#Other data: Founded inside Áger (Catalonia - Spain).
#Begin Processed Spectral Data
#W	S
300.00000000	0.02239153
301.00000000	0.03173666
302.00000000	0.00000000
303.00000000	0.05655872
304.00000000	0.04803651
305.00000000	0.17341261
306.00000000	0.00000000
307.00000000	0.05866682
308.00000000	0.00041423
309.00000000	0.00931990
310.00000000	0.05697979
311.00000000	0.08941814
312.00000000	0.00100512
313.00000000	0.00000000
314.00000000	0.08977347
315.00000000	0.02444651
316.00000000	0.14916962
317.00000000	0.00197112
318.00000000	0.00075379
319.00000000	0.11583684
320.00000000	0.00853061
321.00000000	0.00438833
322.00000000	0.03426158
323.00000000	0.00206971
324.00000000	0.12140760
325.00000000	0.03744337
326.00000000	0.06964765
327.00000000	0.00004029
328.00000000	0.00192150
329.00000000	0.01403285
330.00000000	0.00000000
331.00000000	0.00192218
332.00000000	0.04978885
333.00000000	0.00778867
334.00000000	0.07606298
335.00000000	0.00441833
336.00000000	0.13599931
337.00000000	0.00032874
338.00000000	0.01223462
339.00000000	0.07767035
340.00000000	0.06924007
341.00000000	0.01501174
342.00000000	0.00000000
343.00000000	0.00000000
344.00000000	0.00000000
345.00000000	0.06396647
346.00000000	0.01960165
347.00000000	0.00787102
348.00000000	0.00072388
349.00000000	0.00000000
350.00000000	0.02976009
351.00000000	0.01051328
352.00000000	0.00526140
353.00000000	0.00000000
354.00000000	0.01322944
355.00000000	0.02946438
356.00000000	0.01565580
357.00000000	0.00388770
358.00000000	0.01489342
359.00000000	0.00000000
360.00000000	0.03835810
361.00000000	0.01696391
362.00000000	0.02599068
363.00000000	0.00000000
364.00000000	0.00157381
365.00000000	0.00000000
366.00000000	0.00833708
367.00000000	0.00018386
368.00000000	0.00545195
369.00000000	0.00000000
370.00000000	0.02816995
371.00000000	0.00550723
372.00000000	0.01805823
373.00000000	0.00681840
374.00000000	0.00628533
375.00000000	0.00000000
376.00000000	0.00006228
377.00000000	0.01397648
378.00000000	0.00646555
379.00000000	0.00000000
380.00000000	0.10830161
381.00000000	0.00047210
382.00000000	0.00000000
383.00000000	0.00606009
384.00000000	0.03125177
385.00000000	0.01100190
386.00000000	0.00000000
387.00000000	0.00306254
388.00000000	0.00772443
389.00000000	0.00037835
390.00000000	0.00473495
391.00000000	0.01106724
392.00000000	0.00000000
393.00000000	0.00045651
394.00000000	0.02008805
395.00000000	0.00891638
396.00000000	0.00000000
397.00000000	0.02385014
398.00000000	0.00000000
399.00000000	0.00000000
400.00000000	0.00000000
401.00000000	0.00130711
402.00000000	0.02124012
403.00000000	0.00000000
404.00000000	0.01538013
405.00000000	0.00000000
406.00000000	0.00000000
407.00000000	0.01166883
408.00000000	0.01826294
409.00000000	0.01058805
410.00000000	0.01066648
411.00000000	0.00126148
412.00000000	0.00002953
413.00000000	0.00000000
414.00000000	0.00028501
415.00000000	0.00090208
416.00000000	0.01006696
417.00000000	0.00545654
418.00000000	0.00000000
419.00000000	0.00258334
420.00000000	0.00005275
421.00000000	0.00088685
422.00000000	0.06029394
423.00000000	0.00911451
424.00000000	0.00001701
425.00000000	0.00452612
426.00000000	0.00000000
427.00000000	0.01964771
428.00000000	0.00000000
429.00000000	0.01183680
430.00000000	0.00750770
431.00000000	0.00000000
432.00000000	0.00000000
433.00000000	0.00610263
434.00000000	0.00000000
435.00000000	0.00544484
436.00000000	0.00000000
437.00000000	0.01268187
438.00000000	0.00562514
439.00000000	0.01555266
440.00000000	0.00000000
441.00000000	0.00758586
442.00000000	0.00000000
443.00000000	0.00041252
444.00000000	0.00000000
445.00000000	0.00488202
446.00000000	0.00000000
447.00000000	0.00000000
448.00000000	0.00000000
449.00000000	0.00282393
450.00000000	0.00000000
451.00000000	0.00265992
452.00000000	0.00416294
453.00000000	0.00124295
454.00000000	0.00544972
455.00000000	0.01217023
456.00000000	0.01620342
457.00000000	0.00044642
458.00000000	0.00637753
459.00000000	0.00118666
460.00000000	0.00246768
461.00000000	0.00000000
462.00000000	0.00412318
463.00000000	0.00000000
464.00000000	0.00214949
465.00000000	0.00000000
466.00000000	0.00200047
467.00000000	0.00168664
468.00000000	0.00456600
469.00000000	0.00284095
470.00000000	0.00000000
471.00000000	0.00010956
472.00000000	0.00000000
473.00000000	0.00387543
474.00000000	0.00604815
475.00000000	0.00000000
476.00000000	0.00171937
477.00000000	0.01897150
478.00000000	0.01131871
479.00000000	0.00000000
480.00000000	0.00000000
481.00000000	0.00000000
482.00000000	0.00005670
483.00000000	0.00616315
484.00000000	0.01887672
485.00000000	0.00678255
486.00000000	0.02332557
487.00000000	0.00533686
488.00000000	0.00001064
489.00000000	0.00553147
490.00000000	0.00633450
491.00000000	0.01354008
492.00000000	0.01823770
493.00000000	0.01980640
494.00000000	0.01093822
495.00000000	0.03074760
496.00000000	0.01617292
497.00000000	0.02176224
498.00000000	0.02986559
499.00000000	0.02704774
500.00000000	0.03654877
501.00000000	0.03628205
502.00000000	0.04078873
503.00000000	0.04699043
504.00000000	0.04978570
505.00000000	0.06646165
506.00000000	0.07960713
507.00000000	0.08492018
508.00000000	0.09554426
509.00000000	0.10957870
510.00000000	0.12661995
511.00000000	0.13574272
512.00000000	0.15354156
513.00000000	0.17000044
514.00000000	0.19940288
515.00000000	0.21070602
516.00000000	0.23099853
517.00000000	0.27853782
518.00000000	0.29607756
519.00000000	0.29470162
520.00000000	0.33065522
521.00000000	0.35772014
522.00000000	0.38622627
523.00000000	0.42300778
524.00000000	0.44991441
525.00000000	0.48739506
526.00000000	0.51132737
527.00000000	0.54537434
528.00000000	0.58700006
529.00000000	0.61367173
530.00000000	0.64095811
531.00000000	0.67067450
532.00000000	0.70491296
533.00000000	0.74773613
534.00000000	0.76235151
535.00000000	0.82094854
536.00000000	0.81666584
537.00000000	0.83213142
538.00000000	0.85267785
539.00000000	0.90185142
540.00000000	0.91050520
541.00000000	0.94006625
542.00000000	0.93941883
543.00000000	0.94376123
544.00000000	0.95771615
545.00000000	0.97973515
546.00000000	0.99585532
547.00000000	0.97683189
548.00000000	1.00000000
549.00000000	0.98454715
550.00000000	0.99634283
551.00000000	0.99945377
552.00000000	0.98163670
553.00000000	0.97749780
554.00000000	0.99385780
555.00000000	0.98067527
556.00000000	0.97293935
557.00000000	0.97745276
558.00000000	0.96160100
559.00000000	0.94986829
560.00000000	0.94591271
561.00000000	0.94354352
562.00000000	0.92460973
563.00000000	0.91685986
564.00000000	0.89961673
565.00000000	0.88590616
566.00000000	0.88231708
567.00000000	0.86347649
568.00000000	0.84976080
569.00000000	0.85902913
570.00000000	0.82674117
571.00000000	0.80671396
572.00000000	0.78929840
573.00000000	0.77741583
574.00000000	0.76459141
575.00000000	0.75505498
576.00000000	0.74685903
577.00000000	0.72066194
578.00000000	0.72037333
579.00000000	0.67860802
580.00000000	0.66650933
581.00000000	0.64574917
582.00000000	0.63289682
583.00000000	0.61699582
584.00000000	0.60206682
585.00000000	0.60802663
586.00000000	0.57413148
587.00000000	0.56539412
588.00000000	0.54815564
589.00000000	0.52323381
590.00000000	0.53168075
591.00000000	0.50515113
592.00000000	0.48152258
593.00000000	0.49253899
594.00000000	0.46542892
595.00000000	0.44654021
596.00000000	0.43362665
597.00000000	0.43296160
598.00000000	0.41854652
599.00000000	0.41879568
600.00000000	0.38647388
601.00000000	0.38323908
602.00000000	0.36215368
603.00000000	0.36429880
604.00000000	0.34518500
605.00000000	0.33149202
606.00000000	0.32205029
607.00000000	0.31782399
608.00000000	0.29930717
609.00000000	0.31141217
610.00000000	0.28064398
611.00000000	0.28648426
612.00000000	0.26232857
613.00000000	0.26087411
614.00000000	0.25846881
615.00000000	0.25210535
616.00000000	0.24745887
617.00000000	0.23472157
618.00000000	0.23415365
619.00000000	0.22760802
620.00000000	0.20117582
621.00000000	0.20264332
622.00000000	0.19470864
623.00000000	0.20103454
624.00000000	0.17764417
625.00000000	0.18462979
626.00000000	0.17862698
627.00000000	0.19044273
628.00000000	0.15937764
629.00000000	0.16269112
630.00000000	0.15032388
631.00000000	0.14547033
632.00000000	0.13748405
633.00000000	0.12566455
634.00000000	0.13559905
635.00000000	0.13084617
636.00000000	0.12574991
637.00000000	0.11501887
638.00000000	0.11618573
639.00000000	0.11793861
640.00000000	0.10698772
641.00000000	0.11232865
642.00000000	0.10814914
643.00000000	0.10612541
644.00000000	0.09406584
645.00000000	0.07904277
646.00000000	0.08312543
647.00000000	0.07552457
648.00000000	0.07799644
649.00000000	0.07739038
650.00000000	0.07704336
651.00000000	0.08198731
652.00000000	0.07892990
653.00000000	0.08903195
654.00000000	0.06394731
655.00000000	0.07227067
656.00000000	0.05326205
657.00000000	0.04787095
658.00000000	0.04842550
659.00000000	0.06481676
660.00000000	0.12986560
661.00000000	0.08455127
662.00000000	0.06089341
663.00000000	0.06658193
664.00000000	0.03420717
665.00000000	0.04301873
666.00000000	0.03362135
667.00000000	0.05721209
668.00000000	0.02966035
669.00000000	0.03152654
670.00000000	0.06133045
671.00000000	0.04595230
672.00000000	0.05148018
673.00000000	0.01580482
674.00000000	0.05355287
675.00000000	0.03002707
676.00000000	0.03429163
677.00000000	0.05861538
678.00000000	0.05215966
679.00000000	0.04108637
680.00000000	0.03103045
681.00000000	0.01795047
682.00000000	0.06962319
683.00000000	0.05417471
684.00000000	0.02284776
685.00000000	0.03208221
686.00000000	0.04660780
687.00000000	0.01749863
688.00000000	0.02742489
689.00000000	0.00735398
690.00000000	0.01547412
691.00000000	0.01569954
692.00000000	0.04338824
693.00000000	0.04209090
694.00000000	0.00787198
695.00000000	0.00530768
696.00000000	0.00647607
697.00000000	0.01158310
698.00000000	0.01338427
699.00000000	0.05130289
700.00000000	0.02356227
701.00000000	0.00609307
702.00000000	0.06257037
703.00000000	0.08858875
704.00000000	0.00086701
705.00000000	0.00872077
706.00000000	0.03409156
707.00000000	0.00984108
708.00000000	0.02014742
709.00000000	0.06736446
710.00000000	0.03665184
711.00000000	0.01418910
712.00000000	0.00005207
713.00000000	0.05218543
714.00000000	0.00038401
715.00000000	0.01752487
716.00000000	0.03464615
717.00000000	0.02644772
718.00000000	0.02881440
719.00000000	0.04895176
720.00000000	0.02578122
721.00000000	0.00621784
722.00000000	0.03592879
723.00000000	0.01677720
724.00000000	0.00000000
725.00000000	0.01898735
726.00000000	0.02649989
727.00000000	0.01652390
728.00000000	0.04710823
729.00000000	0.09078347
730.00000000	0.04772402
731.00000000	0.04716992
732.00000000	0.00186115
733.00000000	0.00647178
734.00000000	0.00465949
735.00000000	0.00926420
736.00000000	0.00323529
737.00000000	0.00748903
738.00000000	0.04504964
739.00000000	0.00927091
740.00000000	0.04998916
741.00000000	0.04043368
742.00000000	0.03548668
743.00000000	0.00243637
744.00000000	0.00926925
745.00000000	0.01713046
746.00000000	0.01187592
747.00000000	0.00341598
748.00000000	0.00000000
749.00000000	0.02975023
750.00000000	0.00000000
751.00000000	0.00001877
752.00000000	0.00000000
753.00000000	0.00617560
754.00000000	0.03385819
755.00000000	0.00000000
756.00000000	0.00016839
757.00000000	0.02406044
758.00000000	0.00000000
759.00000000	0.00875531
760.00000000	0.02190429
761.00000000	0.00000000
762.00000000	0.00217429
763.00000000	0.00530579
764.00000000	0.00557666
765.00000000	0.07777513
766.00000000	0.01617771
767.00000000	0.04251112
768.00000000	0.05089496
769.00000000	0.05205527
770.00000000	0.04282532
771.00000000	0.01096289
772.00000000	0.03083386
773.00000000	0.01191495
774.00000000	0.03885537
775.00000000	0.01617218
776.00000000	0.11074900
777.00000000	0.00000000
778.00000000	0.00000000
779.00000000	0.00341134
780.00000000	0.00000000
781.00000000	0.04599257
782.00000000	0.00142010
783.00000000	0.00093625
784.00000000	0.00000000
785.00000000	0.02280702
786.00000000	0.18845805
787.00000000	0.00000000
788.00000000	0.06899335
789.00000000	0.00000000
790.00000000	0.00000000
791.00000000	0.02275815
792.00000000	0.06359719
793.00000000	0.00000000
794.00000000	0.03390039
795.00000000	0.05227690
796.00000000	0.03787244
797.00000000	0.01914141
798.00000000	0.00000000
799.00000000	0.01702914
800.00000000	0.12019928
801.00000000	0.01148058
802.00000000	0.00056283
803.00000000	0.07387034
804.00000000	0.11369072
805.00000000	0.02240937
806.00000000	0.03096536
807.00000000	0.00012486
808.00000000	0.00000000
809.00000000	0.03531222
810.00000000	0.04729575
811.00000000	0.00024651
812.00000000	0.12598111
813.00000000	0.08854545
814.00000000	0.00000000
815.00000000	0.00134068
816.00000000	0.05262498
817.00000000	0.00000000
818.00000000	0.16004402
819.00000000	0.11126661
820.00000000	0.01261569
821.00000000	0.04270830
822.00000000	0.00537568
823.00000000	0.04452242
824.00000000	0.00001685
825.00000000	0.00557725
826.00000000	0.00482020
827.00000000	0.07399765
828.00000000	0.00317984
829.00000000	0.01467895
830.00000000	0.07983109
831.00000000	0.00191049
832.00000000	0.21789146
833.00000000	0.00028972
834.00000000	0.00000000
835.00000000	0.11599879
836.00000000	0.00000000
837.00000000	0.00000000
838.00000000	0.00000000
839.00000000	0.05544241
840.00000000	0.07997098
841.00000000	0.01281911
842.00000000	0.06599858
843.00000000	0.01201148
844.00000000	0.00021030
845.00000000	0.00000000
846.00000000	0.00000000
847.00000000	0.06680746
848.00000000	0.02118972
849.00000000	0.00349530
850.00000000	0.05749264
851.00000000	0.13557030
852.00000000	0.00000000
853.00000000	0.00000019
854.00000000	0.05215780
855.00000000	0.04543989
856.00000000	0.00000000
857.00000000	0.00070913
858.00000000	0.07757172
859.00000000	0.20859893
860.00000000	0.00001600
861.00000000	0.10670798
862.00000000	0.00043253
863.00000000	0.02559546
864.00000000	0.05553202
865.00000000	0.00000000
866.00000000	0.15085425
867.00000000	0.01083519
868.00000000	0.04148492
869.00000000	0.03477361
870.00000000	0.08837571
871.00000000	0.13567514
872.00000000	0.02186072
873.00000000	0.24965029
874.00000000	0.03760827
875.00000000	0.02410206
876.00000000	0.03926649
877.00000000	0.04149582
878.00000000	0.05348523
879.00000000	0.09823290
880.00000000	0.00000000
881.00000000	0.02867959
882.00000000	0.00855186
883.00000000	0.10471764
884.00000000	0.07878631
885.00000000	0.00000000
886.00000000	0.00000000
887.00000000	0.00021241
888.00000000	0.14223799
889.00000000	0.12635500
890.00000000	0.00991662
891.00000000	0.07523713
892.00000000	0.07356198
893.00000000	0.00000000
894.00000000	0.00000000
895.00000000	0.17684951
896.00000000	0.00503625
897.00000000	0.29936708
898.00000000	0.23616426
899.00000000	0.01978755
900.00000000	0.01147905
