# Compact Fluorescent Lamp
#
# average spectrum made of:
# CFL_Compact_Fluorescent_Lamp_2478K_LICA_Westinghouse_cor
# CFL_Compact_Fluorescent_Lamp_2634K_LICA_cor
# CFL_Compact_Fluorescent_Lamp_2776K_LICA_Philips_Master_PL_2700K_cor
# CFL_Compact_Fluorescent_Lamp_5782K_LICA_cor
#
# W	S
300	0
301	6.80675E-05
302	0
303	0
304	0
305	0
306	0
307	0
308	0
309	0
310	0
311	0
312	0.00134789
313	0.004707033
314	0.010045678
315	0.002268623
316	0
317	0
318	0
319	0
320	0
321	0
322	0
323	0
324	0
325	0
326	0.000335893
327	0
328	0
329	0.00008986
330	0
331	0
332	0
333	0
334	0.000373283
335	0.003028593
336	0.001339085
337	0.000219698
338	0.00000352
339	0.000241435
340	0.000313253
341	0.00053032
342	0.000639665
343	0.000159165
344	0.001058165
345	0.00002981
346	2.01725E-05
347	0.000442498
348	0
349	0.000334418
350	0.000632063
351	0.000592678
352	0.000532728
353	0.000521415
354	0.000754768
355	0.00161662
356	0.000501863
357	0.00073292
358	0.00106814
359	0.000569355
360	0.001340495
361	0.001115698
362	0.000982573
363	0.002563658
364	0.011798525
365	0.069689753
366	0.11664324
367	0.06419149
368	0.017609558
369	0.003730263
370	0.00114784
371	0.00207141
372	0.00110751
373	0.000669288
374	0.000522948
375	0.00108403
376	0.00066725
377	0.000990783
378	0.000732105
379	0.00077833
380	0.001488173
381	0.00147802
382	0.001274543
383	0.00138137
384	0.000664643
385	0.000551088
386	0.000648693
387	0.00068727
388	0.00039722
389	0.00032197
390	0.000203625
391	0.000705023
392	0.00064268
393	0.000305775
394	9.72725E-05
395	0.000199888
396	1.85225E-05
397	0.000263255
398	0.00009463
399	0.000336975
400	0.00067924
401	0.000342918
402	0.000767483
403	0.003215733
404	0.058525015
405	0.231059708
406	0.13552842
407	0.039936783
408	0.03060002
409	0.020474238
410	0.007326275
411	0.003819388
412	0.002980928
413	0.00391152
414	0.004426723
415	0.004934475
416	0.005942278
417	0.006347795
418	0.007195083
419	0.007355173
420	0.008082465
421	0.009327368
422	0.009925038
423	0.010645998
424	0.010813673
425	0.011468628
426	0.013044813
427	0.01420506
428	0.01484686
429	0.015810035
430	0.016985795
431	0.017443395
432	0.018402375
433	0.0211719
434	0.029073803
435	0.123822595
436	0.61478056
437	0.447905738
438	0.162515558
439	0.05310664
440	0.028296353
441	0.025917288
442	0.024687148
443	0.025394168
444	0.025119065
445	0.025579678
446	0.02643278
447	0.026660075
448	0.026412283
449	0.026576875
450	0.026637258
451	0.026776833
452	0.026345753
453	0.026276928
454	0.02626386
455	0.026071453
456	0.025632303
457	0.02521293
458	0.025495165
459	0.024732058
460	0.024354878
461	0.024596633
462	0.023724088
463	0.022823273
464	0.024068735
465	0.022603718
466	0.02195053
467	0.022177755
468	0.02275305
469	0.020566625
470	0.020693835
471	0.01960623
472	0.019764673
473	0.02002877
474	0.019319063
475	0.018391153
476	0.01808397
477	0.018145
478	0.01782021
479	0.01816022
480	0.01950629
481	0.021695023
482	0.026118368
483	0.034684205
484	0.047138078
485	0.06359201
486	0.084439
487	0.098980093
488	0.099973053
489	0.092613368
490	0.08112862
491	0.07366423
492	0.06952697
493	0.062191845
494	0.055068868
495	0.049061283
496	0.044996435
497	0.04044906
498	0.036406838
499	0.031930368
500	0.028663635
501	0.025067103
502	0.022003083
503	0.019786468
504	0.01790091
505	0.016735328
506	0.015592108
507	0.015474533
508	0.0150518
509	0.015163793
510	0.015601438
511	0.01569932
512	0.015650138
513	0.015303528
514	0.01563095
515	0.014985188
516	0.014688248
517	0.014603203
518	0.014368358
519	0.013520673
520	0.013127313
521	0.012836423
522	0.01208496
523	0.011510853
524	0.011244048
525	0.010656348
526	0.01041845
527	0.010632555
528	0.01069247
529	0.01066277
530	0.01042356
531	0.01031292
532	0.01144065
533	0.01723779
534	0.022205858
535	0.02048319
536	0.023520723
537	0.0341103
538	0.054503983
539	0.07586373
540	0.125126458
541	0.248038518
542	0.39512429
543	0.38529914
544	0.363240278
545	0.374999405
546	0.697021115
547	0.609620688
548	0.404043
549	0.287639985
550	0.198305738
551	0.146317645
552	0.108865418
553	0.08167075
554	0.061840798
555	0.044591595
556	0.03300543
557	0.02549249
558	0.020021343
559	0.0163
560	0.01349657
561	0.012075525
562	0.010897453
563	0.010339543
564	0.009328663
565	0.008745215
566	0.007462893
567	0.007664323
568	0.007231103
569	0.007192388
570	0.006133608
571	0.005229825
572	0.004621828
573	0.00454526
574	0.004719368
575	0.00608189
576	0.017472653
577	0.09600041
578	0.07294177
579	0.1168731
580	0.10683525
581	0.082915938
582	0.076517063
583	0.085329558
584	0.090172215
585	0.088783703
586	0.085246108
587	0.117667145
588	0.126191883
589	0.087118535
590	0.069501013
591	0.063041523
592	0.072573393
593	0.106380583
594	0.102304283
595	0.072964108
596	0.057721265
597	0.04793435
598	0.047746035
599	0.064875413
600	0.074113355
601	0.061815713
602	0.046974578
603	0.03589237
604	0.03234808
605	0.032836155
606	0.035978465
607	0.0451977
608	0.062744128
609	0.104394375
610	0.24681903
611	0.774998095
612	0.934974295
613	0.659971708
614	0.521856258
615	0.390283928
616	0.257804095
617	0.17082112
618	0.119433955
619	0.089203573
620	0.078119045
621	0.078448693
622	0.07699886
623	0.083273803
624	0.089380978
625	0.09328876
626	0.09625783
627	0.095263343
628	0.090671775
629	0.08752321
630	0.104512598
631	0.146581935
632	0.119546313
633	0.074044428
634	0.04819131
635	0.03036946
636	0.021987025
637	0.01788629
638	0.015695853
639	0.01390151
640	0.012719333
641	0.0125623
642	0.01216931
643	0.01253686
644	0.013216658
645	0.01328582
646	0.012912853
647	0.012676695
648	0.013146435
649	0.015696585
650	0.030671148
651	0.04101509
652	0.031408463
653	0.029891563
654	0.02439964
655	0.017683805
656	0.01572071
657	0.01473152
658	0.015757953
659	0.01331754
660	0.01141737
661	0.011096503
662	0.02104446
663	0.02551086
664	0.019257103
665	0.015056893
666	0.01180871
667	0.01068675
668	0.00944402
669	0.00908437
670	0.008146405
671	0.00852388
672	0.008006203
673	0.007238223
674	0.006568628
675	0.006405853
676	0.005967643
677	0.006016125
678	0.005810408
679	0.006889338
680	0.007470835
681	0.008863845
682	0.008120008
683	0.007009738
684	0.007097933
685	0.007907843
686	0.010834948
687	0.019367555
688	0.024916138
689	0.018497375
690	0.013493415
691	0.009505823
692	0.005854918
693	0.012128755
694	0.01781265
695	0.010684203
696	0.009441138
697	0.008547943
698	0.003753448
699	0.002489343
700	0.002018128
701	0.002461405
702	0.00317741
703	0.00478166
704	0.008528353
705	0.015095725
706	0.03776669
707	0.063396823
708	0.062644885
709	0.079967253
710	0.057703263
711	0.043162548
712	0.06308028
713	0.05435356
714	0.02888783
715	0.017019723
716	0.007786418
717	0.002477015
718	0.001334198
719	0.001162585
720	0.000794095
721	0.000565958
722	0.000216578
723	0.000808398
724	0.000167798
725	0.000780765
726	0.000332938
727	0.00176411
728	0.001634005
729	0.000327195
730	0.000248883
731	0.000156815
732	0.000551575
733	0.000113888
734	4.75E-08
735	0.0000763
736	2.47875E-05
737	0.000958585
738	0.0085605
739	0.006039723
740	0.002281095
741	0.001404578
742	0.001466545
743	0.001377903
744	0.000483078
745	0.000307643
746	0.000380023
747	0.000967338
748	0.000142278
749	0.000582145
750	0.009443488
751	0.014121465
752	0.008620253
753	0.00317803
754	0.001418313
755	0.000214345
756	7.02575E-05
757	0
758	0.00014284
759	0
760	0
761	0.00013862
762	0.001323293
763	0.027324863
764	0.020178853
765	0.008093923
766	0.003881993
767	0.00129154
768	0.000344528
769	0
770	0
771	0.000926125
772	0.011529883
773	0.007047443
774	0.00255378
775	0.001163768
776	0.001019578
777	0
778	0
779	0
780	0
781	0
782	0
783	0
784	0
785	0
786	0
787	0
788	0.000038215
789	0
790	0
791	0
792	0
793	0
794	0.00773248
795	0.010283973
796	0.003657708
797	0.00157417
798	0.000536903
799	0
800	0.007491355
801	0.019877213
802	0.011184203
803	0.00470446
804	0.001890195
805	0.00096526
806	6.71525E-05
807	0.00002514
808	0
809	0.001422163
810	0.021966713
811	0.064744468
812	0.041856008
813	0.015963575
814	0.007631358
815	0.002881923
816	3.17275E-05
817	0
818	0
819	0
820	0
821	0
822	5.7875E-06
823	0
824	0
825	0.000621523
826	0.007602903
827	0.0038709
828	0.00092456
829	0.00041589
830	0
831	0
832	0
833	0
834	0
835	0
836	0
837	0
838	0
839	0.000018665
840	0.0122728
841	0.01723843
842	0.03257861
843	0.016906763
844	0.006172278
845	0.001991008
846	0.00003295
847	0
848	0
849	0
850	0.000110648
851	0.004053873
852	0.006436368
853	0.002275373
854	0.000348053
855	0
856	0
857	0
858	0
859	0
860	0
861	0
862	0
863	0
864	0
865	0
866	0.000017955
867	0
868	0
869	0
870	0
871	0
872	0
873	0
874	0
875	0
876	0
877	0
878	0
879	0
880	0
881	0
882	0
883	0
884	0
885	0
886	0
887	0
888	0
889	0
890	0
891	0
892	0
893	0
894	0
895	0
896	0
897	0
898	0
899	0
900	0