#LICA Lamps Spectra Database
#Website 1: https://guaix.fis.ucm.es/lamps_spectra
#Website 2: http://carlostapia.es/lamparas/lamps.html
#Latest update: 2017/12/15
#Tester: Carlos Eugenio Tapia Ayuga
#Correct for Electrical Dark: Yes (JAZA2310)
#Correct for Detector Non-linearity: Yes (JAZA2310)
#Correct for Flux: Yes
#Start wavelength (nm): 300
#End wavelength (nm): 900
#Steps (nm):	1
#Locus: D65 sRGB Gamma 1 CIE1931
#XYZ coordinates: 0.1610	0.1161	0.0161
#xyY coordinates: 0.5491	0.3961	0.1161
#sRGB: 85	16	1
#CCT Lindbloom (K):	1732
#CCT McCamy (K):	1739
#CCT Hernández-Andrés (K):	1270
#Melatonin: 0.128
#Chlorophyll a: 0.233
#Chlorophyll b: 0.373
#Beta Carotene: 0.234
#Manufacturer: Unknown
#Luminance manufacturer: Unknown
#Other data:
#Begin Processed Spectral Data
W	S
300.00000000	0.00000000
301.00000000	0.00000000
302.00000000	0.00000000
303.00000000	0.00192695
304.00000000	0.01969265
305.00000000	0.00930931
306.00000000	0.00000000
307.00000000	0.00327258
308.00000000	0.00000000
309.00000000	0.00000000
310.00000000	0.00000000
311.00000000	0.00582663
312.00000000	0.00000000
313.00000000	0.00000000
314.00000000	0.00000000
315.00000000	0.00534595
316.00000000	0.00765870
317.00000000	0.00000000
318.00000000	0.00000000
319.00000000	0.01519336
320.00000000	0.00000000
321.00000000	0.00362935
322.00000000	0.00812046
323.00000000	0.00642547
324.00000000	0.00887057
325.00000000	0.00080370
326.00000000	0.00734387
327.00000000	0.00100983
328.00000000	0.00000000
329.00000000	0.00000000
330.00000000	0.00000000
331.00000000	0.00000000
332.00000000	0.00000000
333.00000000	0.00428586
334.00000000	0.00635987
335.00000000	0.00000000
336.00000000	0.02103445
337.00000000	0.00573571
338.00000000	0.00599287
339.00000000	0.00812672
340.00000000	0.00444993
341.00000000	0.00000000
342.00000000	0.00000000
343.00000000	0.00000000
344.00000000	0.00000000
345.00000000	0.00443765
346.00000000	0.00000000
347.00000000	0.00000000
348.00000000	0.00000000
349.00000000	0.00000000
350.00000000	0.00000000
351.00000000	0.00000000
352.00000000	0.00000000
353.00000000	0.00000000
354.00000000	0.00000000
355.00000000	0.00107198
356.00000000	0.00301849
357.00000000	0.00068030
358.00000000	0.00140727
359.00000000	0.00000000
360.00000000	0.00472895
361.00000000	0.00358831
362.00000000	0.00262259
363.00000000	0.00000000
364.00000000	0.00000000
365.00000000	0.00000000
366.00000000	0.00000000
367.00000000	0.00012250
368.00000000	0.00000000
369.00000000	0.00000000
370.00000000	0.00529480
371.00000000	0.00018452
372.00000000	0.00348767
373.00000000	0.00000000
374.00000000	0.00188616
375.00000000	0.00000000
376.00000000	0.00000000
377.00000000	0.00002558
378.00000000	0.00000000
379.00000000	0.00000000
380.00000000	0.00075792
381.00000000	0.00000000
382.00000000	0.00000000
383.00000000	0.00036419
384.00000000	0.00306721
385.00000000	0.00006445
386.00000000	0.00000000
387.00000000	0.00000000
388.00000000	0.00052940
389.00000000	0.00000000
390.00000000	0.00000000
391.00000000	0.00281556
392.00000000	0.00169563
393.00000000	0.00000000
394.00000000	0.00029002
395.00000000	0.00383114
396.00000000	0.00171506
397.00000000	0.00268231
398.00000000	0.00000000
399.00000000	0.00223897
400.00000000	0.00000000
401.00000000	0.00154512
402.00000000	0.00199626
403.00000000	0.00004731
404.00000000	0.00474084
405.00000000	0.00491041
406.00000000	0.00615962
407.00000000	0.00441758
408.00000000	0.00774067
409.00000000	0.00715129
410.00000000	0.00696255
411.00000000	0.00439175
412.00000000	0.00322923
413.00000000	0.00318627
414.00000000	0.00341938
415.00000000	0.00528559
416.00000000	0.00501245
417.00000000	0.00457614
418.00000000	0.00401042
419.00000000	0.00379981
420.00000000	0.00657061
421.00000000	0.00563840
422.00000000	0.01327677
423.00000000	0.00621525
424.00000000	0.00552587
425.00000000	0.00752392
426.00000000	0.00669746
427.00000000	0.00880063
428.00000000	0.00650923
429.00000000	0.00691997
430.00000000	0.00671882
431.00000000	0.00556909
432.00000000	0.00746625
433.00000000	0.00951877
434.00000000	0.00789617
435.00000000	0.01252077
436.00000000	0.02313390
437.00000000	0.01963779
438.00000000	0.01125813
439.00000000	0.01623120
440.00000000	0.01277384
441.00000000	0.01642173
442.00000000	0.01190838
443.00000000	0.01179150
444.00000000	0.00866035
445.00000000	0.00894372
446.00000000	0.01235786
447.00000000	0.01457764
448.00000000	0.01389313
449.00000000	0.01941913
450.00000000	0.02111130
451.00000000	0.02277125
452.00000000	0.02067435
453.00000000	0.01892962
454.00000000	0.01856211
455.00000000	0.01980020
456.00000000	0.01812107
457.00000000	0.01117629
458.00000000	0.01103831
459.00000000	0.01075724
460.00000000	0.01128985
461.00000000	0.01274826
462.00000000	0.01206771
463.00000000	0.01452790
464.00000000	0.01687249
465.00000000	0.02087294
466.00000000	0.03129566
467.00000000	0.04595067
468.00000000	0.04795793
469.00000000	0.03838020
470.00000000	0.02767910
471.00000000	0.02570023
472.00000000	0.02070005
473.00000000	0.01680881
474.00000000	0.01429478
475.00000000	0.01598900
476.00000000	0.01614066
477.00000000	0.00969128
478.00000000	0.00564940
479.00000000	0.00316529
480.00000000	0.00261249
481.00000000	0.00158476
482.00000000	0.00189537
483.00000000	0.00237362
484.00000000	0.00506002
485.00000000	0.00176212
486.00000000	0.00411119
487.00000000	0.00240712
488.00000000	0.00353370
489.00000000	0.00394201
490.00000000	0.00512358
491.00000000	0.00678544
492.00000000	0.01062643
493.00000000	0.00812404
494.00000000	0.00805166
495.00000000	0.01292921
496.00000000	0.02115490
497.00000000	0.04899666
498.00000000	0.12220840
499.00000000	0.15319435
500.00000000	0.09669462
501.00000000	0.04659862
502.00000000	0.02426943
503.00000000	0.01322958
504.00000000	0.00957811
505.00000000	0.00733249
506.00000000	0.00626806
507.00000000	0.00539621
508.00000000	0.00486041
509.00000000	0.00611077
510.00000000	0.00396247
511.00000000	0.00328371
512.00000000	0.00400659
513.00000000	0.00373600
514.00000000	0.00847889
515.00000000	0.03007714
516.00000000	0.04318460
517.00000000	0.02172126
518.00000000	0.01009383
519.00000000	0.00481898
520.00000000	0.00440645
521.00000000	0.00368383
522.00000000	0.00316606
523.00000000	0.00368421
524.00000000	0.00355327
525.00000000	0.00315813
526.00000000	0.00355557
527.00000000	0.00288013
528.00000000	0.00428369
529.00000000	0.00391937
530.00000000	0.00380045
531.00000000	0.00316248
532.00000000	0.00411119
533.00000000	0.00648672
534.00000000	0.00575886
535.00000000	0.00576679
536.00000000	0.00469609
537.00000000	0.00406413
538.00000000	0.00456271
539.00000000	0.00649184
540.00000000	0.00501117
541.00000000	0.00557664
542.00000000	0.00559492
543.00000000	0.00584671
544.00000000	0.00532255
545.00000000	0.00753863
546.00000000	0.02781528
547.00000000	0.02907358
548.00000000	0.01639565
549.00000000	0.01232934
550.00000000	0.01826518
551.00000000	0.02036643
552.00000000	0.02030543
553.00000000	0.02254593
554.00000000	0.02592375
555.00000000	0.02343032
556.00000000	0.02329413
557.00000000	0.02313556
558.00000000	0.02559652
559.00000000	0.02831464
560.00000000	0.03101907
561.00000000	0.03407938
562.00000000	0.03434804
563.00000000	0.03937392
564.00000000	0.04419712
565.00000000	0.05602621
566.00000000	0.08608532
567.00000000	0.16011470
568.00000000	0.33334557
569.00000000	0.65463890
570.00000000	0.56490542
571.00000000	0.29562597
572.00000000	0.16207848
573.00000000	0.10551315
574.00000000	0.08955957
575.00000000	0.08560081
576.00000000	0.08777558
577.00000000	0.09547188
578.00000000	0.10638104
579.00000000	0.12001777
580.00000000	0.13728310
581.00000000	0.15417580
582.00000000	0.18918086
583.00000000	0.22600943
584.00000000	0.27729749
585.00000000	0.33997845
586.00000000	0.40779924
587.00000000	0.41535909
588.00000000	0.27065552
589.00000000	0.10441956
590.00000000	0.04819961
591.00000000	0.05282524
592.00000000	0.13417906
593.00000000	0.25874241
594.00000000	0.35997890
595.00000000	0.41640012
596.00000000	0.44204383
597.00000000	0.44757891
598.00000000	0.43305062
599.00000000	0.41905213
600.00000000	0.40493291
601.00000000	0.38721913
602.00000000	0.35888570
603.00000000	0.34548732
604.00000000	0.32491718
605.00000000	0.30848727
606.00000000	0.28992900
607.00000000	0.27630824
608.00000000	0.26469180
609.00000000	0.24337654
610.00000000	0.22985170
611.00000000	0.22385064
612.00000000	0.20470005
613.00000000	0.20757571
614.00000000	0.19471952
615.00000000	0.21950468
616.00000000	0.31066434
617.00000000	0.29274212
618.00000000	0.20498381
619.00000000	0.16803504
620.00000000	0.15398872
621.00000000	0.14299337
622.00000000	0.13876453
623.00000000	0.13730522
624.00000000	0.12973169
625.00000000	0.12602650
626.00000000	0.12043669
627.00000000	0.11699813
628.00000000	0.11348361
629.00000000	0.11190921
630.00000000	0.10820965
631.00000000	0.10256946
632.00000000	0.10222918
633.00000000	0.10046949
634.00000000	0.09788258
635.00000000	0.09587647
636.00000000	0.09161733
637.00000000	0.09058845
638.00000000	0.09045610
639.00000000	0.08558035
640.00000000	0.07986113
641.00000000	0.07924771
642.00000000	0.08053490
643.00000000	0.08030588
644.00000000	0.07726859
645.00000000	0.07709723
646.00000000	0.07550480
647.00000000	0.07377465
648.00000000	0.07267096
649.00000000	0.07142968
650.00000000	0.06851169
651.00000000	0.06605828
652.00000000	0.06634715
653.00000000	0.06553041
654.00000000	0.06547376
655.00000000	0.06884123
656.00000000	0.06643410
657.00000000	0.06680430
658.00000000	0.06150835
659.00000000	0.06216716
660.00000000	0.07306072
661.00000000	0.06010467
662.00000000	0.05543530
663.00000000	0.05539426
664.00000000	0.05312076
665.00000000	0.05331321
666.00000000	0.05493416
667.00000000	0.05856543
668.00000000	0.06268902
669.00000000	0.06198916
670.00000000	0.06852205
671.00000000	0.07006742
672.00000000	0.07269372
673.00000000	0.06722322
674.00000000	0.07135973
675.00000000	0.06576890
676.00000000	0.06447058
677.00000000	0.06550778
678.00000000	0.05675574
679.00000000	0.05325516
680.00000000	0.04635872
681.00000000	0.04390851
682.00000000	0.04682636
683.00000000	0.04353281
684.00000000	0.03436045
685.00000000	0.03564073
686.00000000	0.03027829
687.00000000	0.02748217
688.00000000	0.02422723
689.00000000	0.02052090
690.00000000	0.02250514
691.00000000	0.02481444
692.00000000	0.02638449
693.00000000	0.02583335
694.00000000	0.02208379
695.00000000	0.01853819
696.00000000	0.01897144
697.00000000	0.02219760
698.00000000	0.01997487
699.00000000	0.02419373
700.00000000	0.02315615
701.00000000	0.02007231
702.00000000	0.02267291
703.00000000	0.02828152
704.00000000	0.01787324
705.00000000	0.01945608
706.00000000	0.02384067
707.00000000	0.01729768
708.00000000	0.02038983
709.00000000	0.02411701
710.00000000	0.02069750
711.00000000	0.01603197
712.00000000	0.01244034
713.00000000	0.01607762
714.00000000	0.01555474
715.00000000	0.01418123
716.00000000	0.01957040
717.00000000	0.02139505
718.00000000	0.02239478
719.00000000	0.02184262
720.00000000	0.01729499
721.00000000	0.01133179
722.00000000	0.01772747
723.00000000	0.01782900
724.00000000	0.01228932
725.00000000	0.01006263
726.00000000	0.01786250
727.00000000	0.00935292
728.00000000	0.01959905
729.00000000	0.02319861
730.00000000	0.02010288
731.00000000	0.01867566
732.00000000	0.01757261
733.00000000	0.01471549
734.00000000	0.01480999
735.00000000	0.01150774
736.00000000	0.01035751
737.00000000	0.01480462
738.00000000	0.01634066
739.00000000	0.01243126
740.00000000	0.01806557
741.00000000	0.01763872
742.00000000	0.01332945
743.00000000	0.01130903
744.00000000	0.01279008
745.00000000	0.01647608
746.00000000	0.01149163
747.00000000	0.01526574
748.00000000	0.01306053
749.00000000	0.02164275
750.00000000	0.01093755
751.00000000	0.01202768
752.00000000	0.01556880
753.00000000	0.01553313
754.00000000	0.01376474
755.00000000	0.01316667
756.00000000	0.01391320
757.00000000	0.01806659
758.00000000	0.01225108
759.00000000	0.00837634
760.00000000	0.01599847
761.00000000	0.00548815
762.00000000	0.00877109
763.00000000	0.01269724
764.00000000	0.01265133
765.00000000	0.02275245
766.00000000	0.02457697
767.00000000	0.03282198
768.00000000	0.03221010
769.00000000	0.02483221
770.00000000	0.02766107
771.00000000	0.01831313
772.00000000	0.01191196
773.00000000	0.01439785
774.00000000	0.01536497
775.00000000	0.01296296
776.00000000	0.02295871
777.00000000	0.01151299
778.00000000	0.01043820
779.00000000	0.01178677
780.00000000	0.00647355
781.00000000	0.01467841
782.00000000	0.00511053
783.00000000	0.01357996
784.00000000	0.00712789
785.00000000	0.01142041
786.00000000	0.01733118
787.00000000	0.00721382
788.00000000	0.01332562
789.00000000	0.01131887
790.00000000	0.00718697
791.00000000	0.01066466
792.00000000	0.01565947
793.00000000	0.00356964
794.00000000	0.00909512
795.00000000	0.01761020
796.00000000	0.02047039
797.00000000	0.01676930
798.00000000	0.00877518
799.00000000	0.00778555
800.00000000	0.02647042
801.00000000	0.02474999
802.00000000	0.01102732
803.00000000	0.01523940
804.00000000	0.00526833
805.00000000	0.01756634
806.00000000	0.01373738
807.00000000	0.01105941
808.00000000	0.02379463
809.00000000	0.02326804
810.00000000	0.02184569
811.00000000	0.01253586
812.00000000	0.03241969
813.00000000	0.02572299
814.00000000	0.03106267
815.00000000	0.03398040
816.00000000	0.07317747
817.00000000	0.16310660
818.00000000	0.47651310
819.00000000	0.82614639
820.00000000	1.00000000
821.00000000	0.90236384
822.00000000	0.58718627
823.00000000	0.35318118
824.00000000	0.19518192
825.00000000	0.12935254
826.00000000	0.09594003
827.00000000	0.07752868
828.00000000	0.05443609
829.00000000	0.03684992
830.00000000	0.05291974
831.00000000	0.03789466
832.00000000	0.04583891
833.00000000	0.01670868
834.00000000	0.01726290
835.00000000	0.03216892
836.00000000	0.01586509
837.00000000	0.02172484
838.00000000	0.02275207
839.00000000	0.01509260
840.00000000	0.01362229
841.00000000	0.00586500
842.00000000	0.01169125
843.00000000	0.00832020
844.00000000	0.00693659
845.00000000	0.00192938
846.00000000	0.00752840
847.00000000	0.02220898
848.00000000	0.02329477
849.00000000	0.00224843
850.00000000	0.01055124
851.00000000	0.02948393
852.00000000	0.00000000
853.00000000	0.00149870
854.00000000	0.01477074
855.00000000	0.00386976
856.00000000	0.00601730
857.00000000	0.00924128
858.00000000	0.01583773
859.00000000	0.03703662
860.00000000	0.00257617
861.00000000	0.03264935
862.00000000	0.00000000
863.00000000	0.00000179
864.00000000	0.01107591
865.00000000	0.00362616
866.00000000	0.01868257
867.00000000	0.01253445
868.00000000	0.00786803
869.00000000	0.01522751
870.00000000	0.00798133
871.00000000	0.01754537
872.00000000	0.00976519
873.00000000	0.02788114
874.00000000	0.00000000
875.00000000	0.00000000
876.00000000	0.01583172
877.00000000	0.00189652
878.00000000	0.00939959
879.00000000	0.00895305
880.00000000	0.00000000
881.00000000	0.00000000
882.00000000	0.00000000
883.00000000	0.00570822
884.00000000	0.00091533
885.00000000	0.00000000
886.00000000	0.00000000
887.00000000	0.01686981
888.00000000	0.00274906
889.00000000	0.01529797
890.00000000	0.00000000
891.00000000	0.00967146
892.00000000	0.00682611
893.00000000	0.00000000
894.00000000	0.00000000
895.00000000	0.01781289
896.00000000	0.00077224
897.00000000	0.03554201
898.00000000	0.00940676
899.00000000	0.00420134
900.00000000	0.00000000
