#LICA Lamps Spectra Database
#Website 1: https://guaix.fis.ucm.es/lamps_spectra
#Website 2: http://carlostapia.es/lamparas/lamps.html
#Latest update: 2018/04/18
#Tester: Carlos Eugenio Tapia Ayuga
#Correct for Electrical Dark: Yes (JAZA2310)
#Correct for Detector Non-linearity: Yes (JAZA2310)
#Correct for Flux: Yes
#Start wavelength (nm): 300
#End wavelength (nm): 900
#Steps (nm):	1
#Locus: D65 sRGB Gamma 1 CIE1931
#XYZ coordinates: 0.0343	0.0160	0.0012
#xyY coordinates: 0.6658	0.3100	0.0160
#sRGB: 22	0	0
#CCT Lindbloom (K):	---
#CCT McCamy (K):	3930
#CCT Hernández-Andrés (K):	---
#Melatonin: 0.089
#Chlorophyll a: 54.509
#Chlorophyll b: 1.399
#Beta Carotene: 54.254
#Manufacturer: Leuci
#Luminance manufacturer: Unknown
#Other data: 25W Special red
#Begin Processed Spectral Data
W	S
300.00000000	0.00269029
301.00000000	0.00261631
302.00000000	0.00365891
303.00000000	0.00095430
304.00000000	0.00350086
305.00000000	0.00510726
306.00000000	0.00401720
307.00000000	0.00728817
308.00000000	0.00217153
309.00000000	0.00623456
310.00000000	0.00323903
311.00000000	0.00309135
312.00000000	0.00188641
313.00000000	0.00275046
314.00000000	0.00492245
315.00000000	0.00306684
316.00000000	0.00371994
317.00000000	0.00281530
318.00000000	0.00237533
319.00000000	0.00266702
320.00000000	0.00125077
321.00000000	0.00155298
322.00000000	0.00029319
323.00000000	0.00530258
324.00000000	0.00065417
325.00000000	0.00223724
326.00000000	0.00383256
327.00000000	0.00253348
328.00000000	0.00112192
329.00000000	0.00248235
330.00000000	0.00269755
331.00000000	0.00168543
332.00000000	0.00425766
333.00000000	0.00149269
334.00000000	0.00307189
335.00000000	0.00290898
336.00000000	0.00173611
337.00000000	0.00097920
338.00000000	0.00336493
339.00000000	0.00173319
340.00000000	0.00096402
341.00000000	0.00189504
342.00000000	0.00207631
343.00000000	0.00251687
344.00000000	0.00231158
345.00000000	0.00204529
346.00000000	0.00187604
347.00000000	0.00216759
348.00000000	0.00105696
349.00000000	0.00073561
350.00000000	0.00133520
351.00000000	0.00182151
352.00000000	0.00155227
353.00000000	0.00097508
354.00000000	0.00138240
355.00000000	0.00044072
356.00000000	0.00067676
357.00000000	0.00147960
358.00000000	0.00082104
359.00000000	0.00176055
360.00000000	0.00118970
361.00000000	0.00133522
362.00000000	0.00103173
363.00000000	0.00038213
364.00000000	0.00165622
365.00000000	0.00100766
366.00000000	0.00123874
367.00000000	0.00127315
368.00000000	0.00104403
369.00000000	0.00088926
370.00000000	0.00105800
371.00000000	0.00107424
372.00000000	0.00098057
373.00000000	0.00114795
374.00000000	0.00151216
375.00000000	0.00156503
376.00000000	0.00112568
377.00000000	0.00112242
378.00000000	0.00124476
379.00000000	0.00120966
380.00000000	0.00117627
381.00000000	0.00087996
382.00000000	0.00131113
383.00000000	0.00105705
384.00000000	0.00094193
385.00000000	0.00114610
386.00000000	0.00122228
387.00000000	0.00074613
388.00000000	0.00116935
389.00000000	0.00115111
390.00000000	0.00061484
391.00000000	0.00139680
392.00000000	0.00098788
393.00000000	0.00139028
394.00000000	0.00105973
395.00000000	0.00048024
396.00000000	0.00100171
397.00000000	0.00121299
398.00000000	0.00072035
399.00000000	0.00094722
400.00000000	0.00059868
401.00000000	0.00102686
402.00000000	0.00072010
403.00000000	0.00100592
404.00000000	0.00099375
405.00000000	0.00056531
406.00000000	0.00081447
407.00000000	0.00103673
408.00000000	0.00115397
409.00000000	0.00140803
410.00000000	0.00119216
411.00000000	0.00118581
412.00000000	0.00108164
413.00000000	0.00102296
414.00000000	0.00065673
415.00000000	0.00081685
416.00000000	0.00094631
417.00000000	0.00129467
418.00000000	0.00089831
419.00000000	0.00081896
420.00000000	0.00041788
421.00000000	0.00124278
422.00000000	0.00101212
423.00000000	0.00117098
424.00000000	0.00107514
425.00000000	0.00119637
426.00000000	0.00126185
427.00000000	0.00112116
428.00000000	0.00073151
429.00000000	0.00089744
430.00000000	0.00125021
431.00000000	0.00106212
432.00000000	0.00075688
433.00000000	0.00095204
434.00000000	0.00128307
435.00000000	0.00050624
436.00000000	0.00093124
437.00000000	0.00121272
438.00000000	0.00115912
439.00000000	0.00133558
440.00000000	0.00122289
441.00000000	0.00126257
442.00000000	0.00109136
443.00000000	0.00133535
444.00000000	0.00103751
445.00000000	0.00117917
446.00000000	0.00103532
447.00000000	0.00154987
448.00000000	0.00107126
449.00000000	0.00101594
450.00000000	0.00121662
451.00000000	0.00113592
452.00000000	0.00072054
453.00000000	0.00102270
454.00000000	0.00098611
455.00000000	0.00149641
456.00000000	0.00133965
457.00000000	0.00086881
458.00000000	0.00139817
459.00000000	0.00120256
460.00000000	0.00074174
461.00000000	0.00128236
462.00000000	0.00145879
463.00000000	0.00123072
464.00000000	0.00141702
465.00000000	0.00097825
466.00000000	0.00134979
467.00000000	0.00145700
468.00000000	0.00136811
469.00000000	0.00128321
470.00000000	0.00135634
471.00000000	0.00110742
472.00000000	0.00135804
473.00000000	0.00127829
474.00000000	0.00134036
475.00000000	0.00101826
476.00000000	0.00110462
477.00000000	0.00124918
478.00000000	0.00101650
479.00000000	0.00118590
480.00000000	0.00108796
481.00000000	0.00136901
482.00000000	0.00135409
483.00000000	0.00120484
484.00000000	0.00134104
485.00000000	0.00117699
486.00000000	0.00126308
487.00000000	0.00122549
488.00000000	0.00104851
489.00000000	0.00135843
490.00000000	0.00120688
491.00000000	0.00134485
492.00000000	0.00118318
493.00000000	0.00134655
494.00000000	0.00127520
495.00000000	0.00126145
496.00000000	0.00137538
497.00000000	0.00132741
498.00000000	0.00126711
499.00000000	0.00117292
500.00000000	0.00158571
501.00000000	0.00149925
502.00000000	0.00136811
503.00000000	0.00148697
504.00000000	0.00132159
505.00000000	0.00126150
506.00000000	0.00133113
507.00000000	0.00137560
508.00000000	0.00133676
509.00000000	0.00133216
510.00000000	0.00139537
511.00000000	0.00145337
512.00000000	0.00138071
513.00000000	0.00124673
514.00000000	0.00168702
515.00000000	0.00129431
516.00000000	0.00152156
517.00000000	0.00142774
518.00000000	0.00168490
519.00000000	0.00150980
520.00000000	0.00178498
521.00000000	0.00131563
522.00000000	0.00166699
523.00000000	0.00150596
524.00000000	0.00153859
525.00000000	0.00153676
526.00000000	0.00164527
527.00000000	0.00156595
528.00000000	0.00150834
529.00000000	0.00162969
530.00000000	0.00172088
531.00000000	0.00185886
532.00000000	0.00161200
533.00000000	0.00166199
534.00000000	0.00157613
535.00000000	0.00174958
536.00000000	0.00196714
537.00000000	0.00156790
538.00000000	0.00189971
539.00000000	0.00179700
540.00000000	0.00167551
541.00000000	0.00190152
542.00000000	0.00185424
543.00000000	0.00187452
544.00000000	0.00194472
545.00000000	0.00187105
546.00000000	0.00196381
547.00000000	0.00177847
548.00000000	0.00199791
549.00000000	0.00192073
550.00000000	0.00219213
551.00000000	0.00223218
552.00000000	0.00210658
553.00000000	0.00211371
554.00000000	0.00214560
555.00000000	0.00232332
556.00000000	0.00233900
557.00000000	0.00243983
558.00000000	0.00253890
559.00000000	0.00239669
560.00000000	0.00219711
561.00000000	0.00241506
562.00000000	0.00257238
563.00000000	0.00250617
564.00000000	0.00249840
565.00000000	0.00275134
566.00000000	0.00283201
567.00000000	0.00293304
568.00000000	0.00261558
569.00000000	0.00302022
570.00000000	0.00303503
571.00000000	0.00339912
572.00000000	0.00327126
573.00000000	0.00351745
574.00000000	0.00339522
575.00000000	0.00347863
576.00000000	0.00390609
577.00000000	0.00415094
578.00000000	0.00432238
579.00000000	0.00446852
580.00000000	0.00513171
581.00000000	0.00510250
582.00000000	0.00589867
583.00000000	0.00581730
584.00000000	0.00665520
585.00000000	0.00662132
586.00000000	0.00741301
587.00000000	0.00787432
588.00000000	0.00831574
589.00000000	0.00885797
590.00000000	0.00943581
591.00000000	0.00994229
592.00000000	0.01083031
593.00000000	0.01164770
594.00000000	0.01258080
595.00000000	0.01362264
596.00000000	0.01431396
597.00000000	0.01527087
598.00000000	0.01711840
599.00000000	0.01792289
600.00000000	0.01958613
601.00000000	0.02060377
602.00000000	0.02182430
603.00000000	0.02302219
604.00000000	0.02493638
605.00000000	0.02663754
606.00000000	0.02801112
607.00000000	0.02896768
608.00000000	0.03129282
609.00000000	0.03210563
610.00000000	0.03418272
611.00000000	0.03556344
612.00000000	0.03845670
613.00000000	0.04086265
614.00000000	0.04191685
615.00000000	0.04459728
616.00000000	0.04750653
617.00000000	0.04877404
618.00000000	0.05148554
619.00000000	0.05333862
620.00000000	0.05641487
621.00000000	0.05939630
622.00000000	0.06142429
623.00000000	0.06192699
624.00000000	0.06552040
625.00000000	0.06866946
626.00000000	0.07070219
627.00000000	0.07298277
628.00000000	0.07658150
629.00000000	0.07813027
630.00000000	0.08005639
631.00000000	0.08341705
632.00000000	0.08546884
633.00000000	0.08918854
634.00000000	0.09180215
635.00000000	0.09343369
636.00000000	0.09648775
637.00000000	0.10035251
638.00000000	0.10251073
639.00000000	0.10618815
640.00000000	0.10901579
641.00000000	0.11153868
642.00000000	0.11487114
643.00000000	0.11719732
644.00000000	0.12030686
645.00000000	0.12346520
646.00000000	0.12708034
647.00000000	0.13075233
648.00000000	0.13349631
649.00000000	0.13765673
650.00000000	0.14024051
651.00000000	0.14305627
652.00000000	0.14827680
653.00000000	0.14893398
654.00000000	0.15357974
655.00000000	0.15920694
656.00000000	0.15899810
657.00000000	0.16468954
658.00000000	0.16768009
659.00000000	0.17172256
660.00000000	0.17709978
661.00000000	0.18139719
662.00000000	0.18540617
663.00000000	0.18848445
664.00000000	0.19137176
665.00000000	0.19728267
666.00000000	0.20153632
667.00000000	0.20561409
668.00000000	0.20877980
669.00000000	0.21315661
670.00000000	0.21960725
671.00000000	0.22519855
672.00000000	0.22759106
673.00000000	0.23444626
674.00000000	0.23822143
675.00000000	0.24315119
676.00000000	0.24932636
677.00000000	0.25522751
678.00000000	0.25780351
679.00000000	0.26408345
680.00000000	0.27133770
681.00000000	0.27529103
682.00000000	0.27723431
683.00000000	0.28544019
684.00000000	0.29093172
685.00000000	0.29538208
686.00000000	0.30046406
687.00000000	0.30488474
688.00000000	0.30912216
689.00000000	0.31556660
690.00000000	0.32173670
691.00000000	0.33157912
692.00000000	0.33540704
693.00000000	0.34337119
694.00000000	0.34817459
695.00000000	0.35302963
696.00000000	0.35976554
697.00000000	0.36435104
698.00000000	0.37282475
699.00000000	0.37927821
700.00000000	0.38721523
701.00000000	0.39611554
702.00000000	0.40158509
703.00000000	0.41304084
704.00000000	0.41615738
705.00000000	0.41708084
706.00000000	0.42332431
707.00000000	0.42841894
708.00000000	0.43817197
709.00000000	0.44800976
710.00000000	0.45441778
711.00000000	0.46308046
712.00000000	0.46680100
713.00000000	0.46721181
714.00000000	0.47869922
715.00000000	0.48315289
716.00000000	0.48957277
717.00000000	0.49592453
718.00000000	0.50340319
719.00000000	0.50944702
720.00000000	0.51982588
721.00000000	0.52262310
722.00000000	0.53345285
723.00000000	0.53813624
724.00000000	0.54405586
725.00000000	0.55052230
726.00000000	0.55410937
727.00000000	0.56111160
728.00000000	0.56669121
729.00000000	0.57733246
730.00000000	0.57567995
731.00000000	0.58276468
732.00000000	0.58906976
733.00000000	0.59405033
734.00000000	0.59162851
735.00000000	0.60218451
736.00000000	0.60643873
737.00000000	0.61301401
738.00000000	0.61903834
739.00000000	0.61963846
740.00000000	0.63105820
741.00000000	0.63342874
742.00000000	0.63903723
743.00000000	0.63657517
744.00000000	0.64214067
745.00000000	0.63739115
746.00000000	0.63758373
747.00000000	0.63699030
748.00000000	0.64254703
749.00000000	0.64864766
750.00000000	0.64980641
751.00000000	0.65560508
752.00000000	0.66257136
753.00000000	0.65910242
754.00000000	0.66798834
755.00000000	0.67160770
756.00000000	0.67662577
757.00000000	0.67887953
758.00000000	0.69021109
759.00000000	0.68983208
760.00000000	0.69483225
761.00000000	0.70365972
762.00000000	0.70528649
763.00000000	0.70460380
764.00000000	0.70583645
765.00000000	0.70688283
766.00000000	0.70846230
767.00000000	0.70748720
768.00000000	0.71385820
769.00000000	0.71463913
770.00000000	0.70985823
771.00000000	0.70986910
772.00000000	0.71615427
773.00000000	0.71426718
774.00000000	0.71832712
775.00000000	0.73036119
776.00000000	0.72335935
777.00000000	0.72999825
778.00000000	0.73562467
779.00000000	0.73150137
780.00000000	0.73188887
781.00000000	0.73495215
782.00000000	0.74026624
783.00000000	0.74575910
784.00000000	0.74901791
785.00000000	0.75183394
786.00000000	0.74937680
787.00000000	0.75586101
788.00000000	0.74758722
789.00000000	0.75941505
790.00000000	0.76384942
791.00000000	0.75579364
792.00000000	0.75647842
793.00000000	0.76748971
794.00000000	0.75253182
795.00000000	0.76160130
796.00000000	0.75941789
797.00000000	0.76007253
798.00000000	0.75162669
799.00000000	0.76126525
800.00000000	0.76169374
801.00000000	0.76779512
802.00000000	0.75993750
803.00000000	0.75127610
804.00000000	0.75564318
805.00000000	0.75803013
806.00000000	0.75882933
807.00000000	0.75605091
808.00000000	0.75617380
809.00000000	0.76016892
810.00000000	0.75698125
811.00000000	0.76769218
812.00000000	0.76648826
813.00000000	0.76783142
814.00000000	0.76883332
815.00000000	0.76421926
816.00000000	0.76698025
817.00000000	0.76508369
818.00000000	0.76037633
819.00000000	0.75898795
820.00000000	0.76418743
821.00000000	0.77362344
822.00000000	0.77764028
823.00000000	0.79687035
824.00000000	0.79247862
825.00000000	0.79575081
826.00000000	0.79645709
827.00000000	0.80472806
828.00000000	0.80350157
829.00000000	0.78799732
830.00000000	0.79552768
831.00000000	0.80247175
832.00000000	0.78840693
833.00000000	0.79782001
834.00000000	0.79674320
835.00000000	0.80540579
836.00000000	0.79446790
837.00000000	0.80024824
838.00000000	0.78551621
839.00000000	0.79084383
840.00000000	0.79985117
841.00000000	0.79584368
842.00000000	0.79332615
843.00000000	0.80653905
844.00000000	0.80626158
845.00000000	0.80301306
846.00000000	0.81533968
847.00000000	0.81328706
848.00000000	0.82057295
849.00000000	0.81605423
850.00000000	0.82521878
851.00000000	0.82249330
852.00000000	0.81678704
853.00000000	0.83595835
854.00000000	0.82440125
855.00000000	0.82867239
856.00000000	0.82253748
857.00000000	0.83363901
858.00000000	0.83688022
859.00000000	0.84727608
860.00000000	0.83874855
861.00000000	0.84444877
862.00000000	0.83949069
863.00000000	0.86297735
864.00000000	0.85995292
865.00000000	0.86466011
866.00000000	0.86257507
867.00000000	0.87228570
868.00000000	0.88359023
869.00000000	0.87615273
870.00000000	0.88078330
871.00000000	0.89689278
872.00000000	0.88552348
873.00000000	0.88630889
874.00000000	0.88522888
875.00000000	0.90393258
876.00000000	0.89810477
877.00000000	0.90233882
878.00000000	0.91225101
879.00000000	0.90338576
880.00000000	0.90737208
881.00000000	0.90651909
882.00000000	0.90844280
883.00000000	0.91316847
884.00000000	0.92389798
885.00000000	0.93948351
886.00000000	0.93962351
887.00000000	0.94088289
888.00000000	0.95397353
889.00000000	0.95341388
890.00000000	0.95263320
891.00000000	0.96484554
892.00000000	0.96461349
893.00000000	0.96521944
894.00000000	0.94906286
895.00000000	0.95894971
896.00000000	0.96453335
897.00000000	0.98784443
898.00000000	1.00000000
899.00000000	0.99807902
900.00000000	0.98611549
