#LICA Lamps Spectra Database
#Website 1: https://guaix.fis.ucm.es/lamps_spectra
#Website 2: http://carlostapia.es/lamparas/lamps.html
#Latest update: 2017/06/28
#Tester: Carlos Eugenio Tapia Ayuga
#Correct for Electrical Dark: Yes (JAZA2310)
#Correct for Detector Non-linearity: Yes (JAZA2310)
#Correct for Flux: Yes
#Start wavelength (nm): 300
#End wavelength (nm): 900
#Steps (nm):	1
#Locus: D65 sRGB Gamma 1 CIE1931
#XYZ coordinates: 0.6386	0.4573	0.0065
#xyY coordinates: 0.5792	0.4149	0.4573
#sRGB: 255	45	0
#CCT Lindbloom (K):	---
#CCT McCamy (K):	1698
#CCT Hernández-Andrés (K):	1151
#Melatonin: 0.050
#Chlorophyll a: 0.424
#Chlorophyll b: 0.418
#Beta Carotene: 0.424
#Manufacturer: Ignialight
#Luminance manufacturer: Unknown
#Other data: Áger streetlight.
#Begin Processed Spectral Data
W	S
300.00000000	0.00000000
301.00000000	0.00047801
302.00000000	0.00000000
303.00000000	0.00000000
304.00000000	0.00000953
305.00000000	0.00000000
306.00000000	0.00000000
307.00000000	0.00000000
308.00000000	0.00253132
309.00000000	0.00000000
310.00000000	0.00059987
311.00000000	0.00000000
312.00000000	0.00000000
313.00000000	0.00000000
314.00000000	0.00000000
315.00000000	0.00000000
316.00000000	0.00000000
317.00000000	0.00000000
318.00000000	0.00000000
319.00000000	0.00000000
320.00000000	0.00000000
321.00000000	0.00000000
322.00000000	0.00000000
323.00000000	0.00000000
324.00000000	0.00078861
325.00000000	0.00025372
326.00000000	0.00000000
327.00000000	0.00000102
328.00000000	0.00000000
329.00000000	0.00039323
330.00000000	0.00003133
331.00000000	0.00000000
332.00000000	0.00000000
333.00000000	0.00000000
334.00000000	0.00000000
335.00000000	0.00023782
336.00000000	0.00000000
337.00000000	0.00000000
338.00000000	0.00000000
339.00000000	0.00000000
340.00000000	0.00000000
341.00000000	0.00000002
342.00000000	0.00000000
343.00000000	0.00000000
344.00000000	0.00000000
345.00000000	0.00049666
346.00000000	0.00000000
347.00000000	0.00000000
348.00000000	0.00000000
349.00000000	0.00034168
350.00000000	0.00000000
351.00000000	0.00000000
352.00000000	0.00012950
353.00000000	0.00013253
354.00000000	0.00000000
355.00000000	0.00001325
356.00000000	0.00000000
357.00000000	0.00023860
358.00000000	0.00000000
359.00000000	0.00000000
360.00000000	0.00000000
361.00000000	0.00000000
362.00000000	0.00000000
363.00000000	0.00000000
364.00000000	0.00003146
365.00000000	0.00000000
366.00000000	0.00006197
367.00000000	0.00000000
368.00000000	0.00000000
369.00000000	0.00000000
370.00000000	0.00000000
371.00000000	0.00000000
372.00000000	0.00000000
373.00000000	0.00000000
374.00000000	0.00000000
375.00000000	0.00003570
376.00000000	0.00000000
377.00000000	0.00000000
378.00000000	0.00021139
379.00000000	0.00000000
380.00000000	0.00000000
381.00000000	0.00000000
382.00000000	0.00000000
383.00000000	0.00000000
384.00000000	0.00000000
385.00000000	0.00000000
386.00000000	0.00020293
387.00000000	0.00000000
388.00000000	0.00000019
389.00000000	0.00003067
390.00000000	0.00000000
391.00000000	0.00000000
392.00000000	0.00000011
393.00000000	0.00000000
394.00000000	0.00000000
395.00000000	0.00008196
396.00000000	0.00000413
397.00000000	0.00000000
398.00000000	0.00000000
399.00000000	0.00000000
400.00000000	0.00007559
401.00000000	0.00001003
402.00000000	0.00000000
403.00000000	0.00000000
404.00000000	0.00000000
405.00000000	0.00000000
406.00000000	0.00000000
407.00000000	0.00000000
408.00000000	0.00000000
409.00000000	0.00075027
410.00000000	0.00069979
411.00000000	0.00087827
412.00000000	0.00048404
413.00000000	0.00114989
414.00000000	0.00159818
415.00000000	0.00165361
416.00000000	0.00193145
417.00000000	0.00340356
418.00000000	0.00340928
419.00000000	0.00346779
420.00000000	0.00420981
421.00000000	0.00553859
422.00000000	0.00581624
423.00000000	0.00627262
424.00000000	0.00713536
425.00000000	0.00738090
426.00000000	0.00734566
427.00000000	0.00750817
428.00000000	0.00760213
429.00000000	0.00788170
430.00000000	0.00789157
431.00000000	0.00828686
432.00000000	0.00763725
433.00000000	0.00747740
434.00000000	0.00712932
435.00000000	0.00709684
436.00000000	0.00673609
437.00000000	0.00598819
438.00000000	0.00646053
439.00000000	0.00661045
440.00000000	0.00562738
441.00000000	0.00594314
442.00000000	0.00535369
443.00000000	0.00555010
444.00000000	0.00421426
445.00000000	0.00437991
446.00000000	0.00387444
447.00000000	0.00403122
448.00000000	0.00357109
449.00000000	0.00322502
450.00000000	0.00298497
451.00000000	0.00272940
452.00000000	0.00196651
453.00000000	0.00182292
454.00000000	0.00194742
455.00000000	0.00141373
456.00000000	0.00207436
457.00000000	0.00142715
458.00000000	0.00178178
459.00000000	0.00054827
460.00000000	0.00083685
461.00000000	0.00069264
462.00000000	0.00145149
463.00000000	0.00112355
464.00000000	0.00078274
465.00000000	0.00097787
466.00000000	0.00079119
467.00000000	0.00067307
468.00000000	0.00107091
469.00000000	0.00082135
470.00000000	0.00114215
471.00000000	0.00073573
472.00000000	0.00092949
473.00000000	0.00103237
474.00000000	0.00086981
475.00000000	0.00097619
476.00000000	0.00126805
477.00000000	0.00159849
478.00000000	0.00135339
479.00000000	0.00156921
480.00000000	0.00163774
481.00000000	0.00135617
482.00000000	0.00210827
483.00000000	0.00158037
484.00000000	0.00215506
485.00000000	0.00240578
486.00000000	0.00246559
487.00000000	0.00246860
488.00000000	0.00297373
489.00000000	0.00317587
490.00000000	0.00355306
491.00000000	0.00396108
492.00000000	0.00450619
493.00000000	0.00514098
494.00000000	0.00583165
495.00000000	0.00658989
496.00000000	0.00740746
497.00000000	0.00836958
498.00000000	0.00967571
499.00000000	0.01051052
500.00000000	0.01218850
501.00000000	0.01359998
502.00000000	0.01501227
503.00000000	0.01709555
504.00000000	0.01930692
505.00000000	0.02096249
506.00000000	0.02320699
507.00000000	0.02589798
508.00000000	0.02830563
509.00000000	0.03137365
510.00000000	0.03408924
511.00000000	0.03756451
512.00000000	0.04032981
513.00000000	0.04361801
514.00000000	0.04754021
515.00000000	0.05056998
516.00000000	0.05391673
517.00000000	0.05787753
518.00000000	0.06110177
519.00000000	0.06420129
520.00000000	0.06854139
521.00000000	0.07212104
522.00000000	0.07641671
523.00000000	0.08048695
524.00000000	0.08437298
525.00000000	0.08849750
526.00000000	0.09305001
527.00000000	0.09718466
528.00000000	0.10132877
529.00000000	0.10584332
530.00000000	0.11082769
531.00000000	0.11427779
532.00000000	0.11871818
533.00000000	0.12204372
534.00000000	0.12732886
535.00000000	0.13309325
536.00000000	0.13665955
537.00000000	0.14194323
538.00000000	0.14656784
539.00000000	0.15246595
540.00000000	0.15795087
541.00000000	0.16586443
542.00000000	0.17040522
543.00000000	0.17759957
544.00000000	0.18228989
545.00000000	0.18915223
546.00000000	0.19522523
547.00000000	0.20353959
548.00000000	0.21196465
549.00000000	0.21811316
550.00000000	0.22693895
551.00000000	0.23688562
552.00000000	0.24609859
553.00000000	0.25515901
554.00000000	0.26497089
555.00000000	0.27565507
556.00000000	0.28881710
557.00000000	0.30095181
558.00000000	0.31393588
559.00000000	0.32524417
560.00000000	0.33925300
561.00000000	0.35373691
562.00000000	0.36750487
563.00000000	0.38068161
564.00000000	0.39496815
565.00000000	0.41048849
566.00000000	0.42650870
567.00000000	0.44461540
568.00000000	0.45966707
569.00000000	0.47713360
570.00000000	0.49053453
571.00000000	0.50946604
572.00000000	0.52836893
573.00000000	0.54468215
574.00000000	0.56235141
575.00000000	0.58016466
576.00000000	0.59713901
577.00000000	0.61811103
578.00000000	0.63634869
579.00000000	0.65418551
580.00000000	0.67184874
581.00000000	0.69147386
582.00000000	0.71189337
583.00000000	0.73300913
584.00000000	0.75213556
585.00000000	0.77455342
586.00000000	0.79339430
587.00000000	0.80862511
588.00000000	0.82412544
589.00000000	0.83483617
590.00000000	0.85301887
591.00000000	0.86873971
592.00000000	0.88188340
593.00000000	0.89519865
594.00000000	0.90585674
595.00000000	0.91797303
596.00000000	0.92908505
597.00000000	0.93475193
598.00000000	0.94830334
599.00000000	0.96055943
600.00000000	0.97012159
601.00000000	0.97790598
602.00000000	0.98539692
603.00000000	0.99790405
604.00000000	1.00000000
605.00000000	0.99737959
606.00000000	0.99967179
607.00000000	0.99743151
608.00000000	0.99643095
609.00000000	0.99455029
610.00000000	0.99413589
611.00000000	0.99432565
612.00000000	0.99044905
613.00000000	0.99068388
614.00000000	0.99126696
615.00000000	0.99456339
616.00000000	0.99232005
617.00000000	0.99035472
618.00000000	0.99575105
619.00000000	0.99121231
620.00000000	0.99127422
621.00000000	0.97577368
622.00000000	0.96825392
623.00000000	0.96453591
624.00000000	0.95533448
625.00000000	0.94962608
626.00000000	0.94221099
627.00000000	0.93110694
628.00000000	0.92446059
629.00000000	0.90923121
630.00000000	0.89509107
631.00000000	0.88612194
632.00000000	0.87484175
633.00000000	0.86213542
634.00000000	0.85499667
635.00000000	0.84216189
636.00000000	0.82849053
637.00000000	0.81853076
638.00000000	0.80302094
639.00000000	0.79132832
640.00000000	0.78177704
641.00000000	0.76814024
642.00000000	0.75757419
643.00000000	0.74286850
644.00000000	0.73321765
645.00000000	0.71572372
646.00000000	0.70686333
647.00000000	0.69651355
648.00000000	0.68641342
649.00000000	0.67657870
650.00000000	0.66068890
651.00000000	0.64744754
652.00000000	0.63737370
653.00000000	0.61986174
654.00000000	0.61016267
655.00000000	0.59790601
656.00000000	0.58714654
657.00000000	0.57407891
658.00000000	0.56434380
659.00000000	0.55267730
660.00000000	0.53940991
661.00000000	0.53445428
662.00000000	0.52191965
663.00000000	0.50967231
664.00000000	0.49838279
665.00000000	0.49160206
666.00000000	0.47882918
667.00000000	0.46808347
668.00000000	0.45856463
669.00000000	0.44904819
670.00000000	0.44235118
671.00000000	0.43511134
672.00000000	0.42364927
673.00000000	0.41711165
674.00000000	0.40545170
675.00000000	0.39660717
676.00000000	0.39122482
677.00000000	0.38203343
678.00000000	0.37272698
679.00000000	0.36453970
680.00000000	0.35862706
681.00000000	0.35143628
682.00000000	0.34325193
683.00000000	0.33550465
684.00000000	0.32659993
685.00000000	0.32145510
686.00000000	0.31484407
687.00000000	0.30739764
688.00000000	0.29928598
689.00000000	0.29215801
690.00000000	0.28471643
691.00000000	0.28095237
692.00000000	0.27585246
693.00000000	0.26881264
694.00000000	0.26208696
695.00000000	0.25760033
696.00000000	0.25008695
697.00000000	0.24258950
698.00000000	0.23715971
699.00000000	0.23167655
700.00000000	0.22774898
701.00000000	0.22438041
702.00000000	0.21757983
703.00000000	0.21448001
704.00000000	0.20776104
705.00000000	0.20191185
706.00000000	0.19472968
707.00000000	0.18963970
708.00000000	0.18515787
709.00000000	0.18152658
710.00000000	0.17696995
711.00000000	0.17391155
712.00000000	0.16821104
713.00000000	0.16412659
714.00000000	0.16023081
715.00000000	0.15575505
716.00000000	0.15079571
717.00000000	0.14673193
718.00000000	0.14470867
719.00000000	0.14003458
720.00000000	0.13569855
721.00000000	0.13473533
722.00000000	0.12948106
723.00000000	0.12759953
724.00000000	0.12294602
725.00000000	0.11911441
726.00000000	0.11568620
727.00000000	0.11120613
728.00000000	0.11042272
729.00000000	0.10649750
730.00000000	0.10363979
731.00000000	0.10184092
732.00000000	0.09865674
733.00000000	0.09545526
734.00000000	0.09244458
735.00000000	0.08964368
736.00000000	0.08756103
737.00000000	0.08575544
738.00000000	0.08290333
739.00000000	0.08131394
740.00000000	0.07962329
741.00000000	0.07737581
742.00000000	0.07508540
743.00000000	0.07300344
744.00000000	0.07033041
745.00000000	0.06900163
746.00000000	0.06687824
747.00000000	0.06510256
748.00000000	0.06185605
749.00000000	0.06042896
750.00000000	0.05843100
751.00000000	0.05782640
752.00000000	0.05735071
753.00000000	0.05308439
754.00000000	0.05336485
755.00000000	0.05207374
756.00000000	0.05025884
757.00000000	0.04912530
758.00000000	0.04917015
759.00000000	0.04869862
760.00000000	0.04562007
761.00000000	0.04534229
762.00000000	0.04298840
763.00000000	0.04200527
764.00000000	0.04064782
765.00000000	0.03861930
766.00000000	0.03805205
767.00000000	0.03700185
768.00000000	0.03657274
769.00000000	0.03465151
770.00000000	0.03468151
771.00000000	0.03435361
772.00000000	0.03347208
773.00000000	0.03210989
774.00000000	0.03048452
775.00000000	0.02821077
776.00000000	0.02851362
777.00000000	0.02668723
778.00000000	0.02650690
779.00000000	0.02586454
780.00000000	0.02490846
781.00000000	0.02512728
782.00000000	0.02478841
783.00000000	0.02299398
784.00000000	0.02504808
785.00000000	0.02444345
786.00000000	0.02187748
787.00000000	0.02129995
788.00000000	0.01989129
789.00000000	0.01868018
790.00000000	0.02044488
791.00000000	0.01767941
792.00000000	0.01878642
793.00000000	0.01784559
794.00000000	0.01725167
795.00000000	0.01632166
796.00000000	0.01551926
797.00000000	0.01557202
798.00000000	0.01571382
799.00000000	0.01524211
800.00000000	0.01648761
801.00000000	0.01321326
802.00000000	0.01561170
803.00000000	0.01165000
804.00000000	0.01078574
805.00000000	0.01266727
806.00000000	0.01246360
807.00000000	0.01269981
808.00000000	0.01065671
809.00000000	0.01075765
810.00000000	0.01056087
811.00000000	0.01065510
812.00000000	0.00892737
813.00000000	0.01077785
814.00000000	0.00962161
815.00000000	0.00837714
816.00000000	0.00984611
817.00000000	0.00890553
818.00000000	0.00809657
819.00000000	0.00828524
820.00000000	0.00944981
821.00000000	0.00815178
822.00000000	0.00818981
823.00000000	0.00684207
824.00000000	0.00868019
825.00000000	0.00708441
826.00000000	0.00625682
827.00000000	0.00620754
828.00000000	0.00814091
829.00000000	0.00486574
830.00000000	0.00534669
831.00000000	0.00511177
832.00000000	0.00670287
833.00000000	0.00571148
834.00000000	0.00334741
835.00000000	0.00158599
836.00000000	0.00392569
837.00000000	0.00065983
838.00000000	0.00370911
839.00000000	0.00345809
840.00000000	0.00100750
841.00000000	0.00131599
842.00000000	0.00295883
843.00000000	0.00361864
844.00000000	0.00224525
845.00000000	0.00308507
846.00000000	0.00395039
847.00000000	0.00425776
848.00000000	0.00030055
849.00000000	0.00363460
850.00000000	0.00281416
851.00000000	0.00091441
852.00000000	0.00308432
853.00000000	0.00000001
854.00000000	0.00155048
855.00000000	0.00325374
856.00000000	0.00187319
857.00000000	0.00128052
858.00000000	0.00034667
859.00000000	0.00294555
860.00000000	0.00060788
861.00000000	0.00000000
862.00000000	0.00010535
863.00000000	0.00000000
864.00000000	0.00134543
865.00000000	0.00007022
866.00000000	0.00061422
867.00000000	0.00011591
868.00000000	0.00117181
869.00000000	0.00000000
870.00000000	0.00028220
871.00000000	0.00000000
872.00000000	0.00349576
873.00000000	0.00000000
874.00000000	0.00011674
875.00000000	0.00121724
876.00000000	0.00000000
877.00000000	0.00003313
878.00000000	0.00049773
879.00000000	0.00000000
880.00000000	0.00145729
881.00000000	0.00025427
882.00000000	0.00008449
883.00000000	0.00000000
884.00000000	0.00000000
885.00000000	0.00000000
886.00000000	0.00000000
887.00000000	0.00441598
888.00000000	0.00000000
889.00000000	0.00000000
890.00000000	0.00000000
891.00000000	0.00031544
892.00000000	0.00290247
893.00000000	0.00000000
894.00000000	0.00141750
895.00000000	0.00000000
896.00000000	0.00000000
897.00000000	0.00000000
898.00000000	0.00000000
899.00000000	0.00000000
900.00000000	0.00000000
