#LICA Lamps Spectra Database
#Website 1: https://guaix.fis.ucm.es/lamps_spectra
#Website 2: http://carlostapia.es/lamparas/lamps.html
#Latest update: 2017/12/11
#Tester: Carlos Eugenio Tapia Ayuga
#Correct for Electrical Dark: Yes (JAZA2310)
#Correct for Detector Non-linearity: Yes (JAZA2310)
#Correct for Flux: Yes
#Start wavelength (nm): 300
#End wavelength (nm): 900
#Steps (nm):	1
#Locus: D65 sRGB Gamma 1 CIE1931
#XYZ coordinates: 0.6497	0.5089	0.0060
#xyY coordinates: 0.5579	0.4370	0.5089
#sRGB: 255	63	0
#CCT Lindbloom (K):	1901
#CCT McCamy (K):	1909
#CCT Hernández-Andrés (K):	1565
#Melatonin: 0.044
#Chlorophyll a: 0.165
#Chlorophyll b: 0.324
#Beta Carotene: 0.167
#Manufacturer: Wave Tecnica Canaria
#Luminance manufacturer: Unknown
#Other data:
#Begin Processed Spectral Data
W	S
300.00000000	0.00345055
301.00000000	0.00000000
302.00000000	0.00000000
303.00000000	0.00000000
304.00000000	0.00015283
305.00000000	0.00055546
306.00000000	0.00293451
307.00000000	0.00000000
308.00000000	0.00176546
309.00000000	0.00056735
310.00000000	0.00000000
311.00000000	0.00000000
312.00000000	0.00000000
313.00000000	0.00000000
314.00000000	0.00155052
315.00000000	0.00000000
316.00000000	0.00000000
317.00000000	0.00000000
318.00000000	0.00002305
319.00000000	0.00000000
320.00000000	0.00235086
321.00000000	0.00022450
322.00000000	0.00010559
323.00000000	0.00000000
324.00000000	0.00087030
325.00000000	0.00000000
326.00000000	0.00350576
327.00000000	0.00000000
328.00000000	0.00764590
329.00000000	0.00180495
330.00000000	0.00023195
331.00000000	0.00000000
332.00000000	0.00000000
333.00000000	0.00259279
334.00000000	0.00000000
335.00000000	0.00000000
336.00000000	0.00175434
337.00000000	0.00419343
338.00000000	0.00672069
339.00000000	0.00000000
340.00000000	0.00004593
341.00000000	0.00207171
342.00000000	0.00193995
343.00000000	0.00000000
344.00000000	0.00079353
345.00000000	0.00000000
346.00000000	0.00000000
347.00000000	0.00000000
348.00000000	0.00339063
349.00000000	0.00010594
350.00000000	0.00106293
351.00000000	0.00025390
352.00000000	0.00000000
353.00000000	0.00158892
354.00000000	0.00003739
355.00000000	0.00000000
356.00000000	0.00008083
357.00000000	0.00018619
358.00000000	0.00000000
359.00000000	0.00000000
360.00000000	0.00000000
361.00000000	0.00000000
362.00000000	0.00052838
363.00000000	0.00199422
364.00000000	0.00033729
365.00000000	0.00000000
366.00000000	0.00000000
367.00000000	0.00001414
368.00000000	0.00010360
369.00000000	0.00064056
370.00000000	0.00158719
371.00000000	0.00000000
372.00000000	0.00000000
373.00000000	0.00025907
374.00000000	0.00041043
375.00000000	0.00000000
376.00000000	0.00365953
377.00000000	0.00000000
378.00000000	0.00088538
379.00000000	0.00549032
380.00000000	0.00059112
381.00000000	0.00000000
382.00000000	0.00166572
383.00000000	0.00186204
384.00000000	0.00036024
385.00000000	0.00001669
386.00000000	0.00092802
387.00000000	0.00228821
388.00000000	0.00000000
389.00000000	0.00110032
390.00000000	0.00000000
391.00000000	0.00000000
392.00000000	0.00006376
393.00000000	0.00070990
394.00000000	0.00094668
395.00000000	0.00083366
396.00000000	0.00000927
397.00000000	0.00033559
398.00000000	0.00205156
399.00000000	0.00065386
400.00000000	0.00000000
401.00000000	0.00159806
402.00000000	0.00022727
403.00000000	0.00000000
404.00000000	0.00061071
405.00000000	0.00224613
406.00000000	0.00000000
407.00000000	0.00000000
408.00000000	0.00000000
409.00000000	0.00000000
410.00000000	0.00053462
411.00000000	0.00007095
412.00000000	0.00032968
413.00000000	0.00039855
414.00000000	0.00000000
415.00000000	0.00117189
416.00000000	0.00057227
417.00000000	0.00037086
418.00000000	0.00020147
419.00000000	0.00017581
420.00000000	0.00000000
421.00000000	0.00205125
422.00000000	0.00248447
423.00000000	0.00054391
424.00000000	0.00143580
425.00000000	0.00020282
426.00000000	0.00000000
427.00000000	0.00004505
428.00000000	0.00211322
429.00000000	0.00026019
430.00000000	0.00192488
431.00000000	0.00162230
432.00000000	0.00293802
433.00000000	0.00101871
434.00000000	0.00180017
435.00000000	0.00420667
436.00000000	0.00133909
437.00000000	0.00379542
438.00000000	0.00466954
439.00000000	0.00266110
440.00000000	0.00629656
441.00000000	0.00629628
442.00000000	0.00713769
443.00000000	0.00694781
444.00000000	0.00603722
445.00000000	0.00613325
446.00000000	0.00870885
447.00000000	0.00733377
448.00000000	0.00904942
449.00000000	0.00633858
450.00000000	0.00749306
451.00000000	0.00610700
452.00000000	0.00764601
453.00000000	0.00592930
454.00000000	0.00528450
455.00000000	0.00443650
456.00000000	0.00513730
457.00000000	0.00434709
458.00000000	0.00077431
459.00000000	0.00397937
460.00000000	0.00293169
461.00000000	0.00414238
462.00000000	0.00063423
463.00000000	0.00269985
464.00000000	0.00156777
465.00000000	0.00361315
466.00000000	0.00287231
467.00000000	0.00260950
468.00000000	0.00341607
469.00000000	0.00183178
470.00000000	0.00264381
471.00000000	0.00102754
472.00000000	0.00263931
473.00000000	0.00080369
474.00000000	0.00106523
475.00000000	0.00193955
476.00000000	0.00291031
477.00000000	0.00171639
478.00000000	0.00164225
479.00000000	0.00231543
480.00000000	0.00218339
481.00000000	0.00284238
482.00000000	0.00089154
483.00000000	0.00266595
484.00000000	0.00198618
485.00000000	0.00375400
486.00000000	0.00291758
487.00000000	0.00347814
488.00000000	0.00283103
489.00000000	0.00182468
490.00000000	0.00313386
491.00000000	0.00309756
492.00000000	0.00495025
493.00000000	0.00402093
494.00000000	0.00427695
495.00000000	0.00468123
496.00000000	0.00531073
497.00000000	0.00572547
498.00000000	0.00577535
499.00000000	0.00765668
500.00000000	0.00797983
501.00000000	0.00981524
502.00000000	0.00904233
503.00000000	0.01147257
504.00000000	0.01272165
505.00000000	0.01238434
506.00000000	0.01322238
507.00000000	0.01420651
508.00000000	0.01662302
509.00000000	0.01640828
510.00000000	0.01842043
511.00000000	0.02034607
512.00000000	0.02087397
513.00000000	0.02370720
514.00000000	0.02514987
515.00000000	0.02718995
516.00000000	0.02831311
517.00000000	0.03121822
518.00000000	0.03381276
519.00000000	0.03518284
520.00000000	0.03748379
521.00000000	0.04134782
522.00000000	0.04447683
523.00000000	0.04680660
524.00000000	0.05088745
525.00000000	0.05278399
526.00000000	0.05690805
527.00000000	0.06038151
528.00000000	0.06578810
529.00000000	0.07204320
530.00000000	0.07721904
531.00000000	0.08223441
532.00000000	0.08894175
533.00000000	0.09181244
534.00000000	0.10074035
535.00000000	0.10879269
536.00000000	0.11496878
537.00000000	0.12512171
538.00000000	0.13357542
539.00000000	0.14546602
540.00000000	0.15430355
541.00000000	0.16717651
542.00000000	0.17896362
543.00000000	0.19056897
544.00000000	0.20501780
545.00000000	0.22150868
546.00000000	0.23244677
547.00000000	0.24684120
548.00000000	0.26706720
549.00000000	0.27975549
550.00000000	0.29862843
551.00000000	0.32666450
552.00000000	0.34250290
553.00000000	0.36122419
554.00000000	0.38312592
555.00000000	0.40518223
556.00000000	0.43463641
557.00000000	0.45591036
558.00000000	0.48515905
559.00000000	0.50738577
560.00000000	0.53253540
561.00000000	0.56409546
562.00000000	0.58031958
563.00000000	0.59900655
564.00000000	0.62494192
565.00000000	0.64819922
566.00000000	0.66572627
567.00000000	0.69340072
568.00000000	0.71234939
569.00000000	0.73950821
570.00000000	0.75226848
571.00000000	0.77508210
572.00000000	0.79495736
573.00000000	0.80501570
574.00000000	0.82808822
575.00000000	0.83802909
576.00000000	0.85207955
577.00000000	0.87177320
578.00000000	0.88730804
579.00000000	0.89411673
580.00000000	0.90587160
581.00000000	0.91755980
582.00000000	0.93408656
583.00000000	0.94530087
584.00000000	0.95018747
585.00000000	0.97172725
586.00000000	0.97231775
587.00000000	0.97759231
588.00000000	0.98267144
589.00000000	0.98821823
590.00000000	0.98692833
591.00000000	0.98501796
592.00000000	0.99291414
593.00000000	0.99110485
594.00000000	0.99297952
595.00000000	1.00000000
596.00000000	0.99238467
597.00000000	0.98874012
598.00000000	0.98455460
599.00000000	0.98919717
600.00000000	0.98790650
601.00000000	0.97936254
602.00000000	0.97193901
603.00000000	0.96734643
604.00000000	0.96740045
605.00000000	0.95547956
606.00000000	0.93825696
607.00000000	0.93613432
608.00000000	0.92341420
609.00000000	0.91195182
610.00000000	0.90338039
611.00000000	0.90103876
612.00000000	0.87795036
613.00000000	0.87359791
614.00000000	0.86534508
615.00000000	0.86295505
616.00000000	0.85477387
617.00000000	0.84384973
618.00000000	0.84039657
619.00000000	0.82669731
620.00000000	0.82679261
621.00000000	0.79944892
622.00000000	0.78674701
623.00000000	0.77810558
624.00000000	0.76666489
625.00000000	0.75244548
626.00000000	0.73957510
627.00000000	0.72507075
628.00000000	0.71726796
629.00000000	0.69865622
630.00000000	0.69449007
631.00000000	0.67263991
632.00000000	0.65240675
633.00000000	0.65045011
634.00000000	0.63594876
635.00000000	0.62884438
636.00000000	0.60352366
637.00000000	0.59280545
638.00000000	0.58686981
639.00000000	0.57153643
640.00000000	0.56296599
641.00000000	0.54336757
642.00000000	0.53839313
643.00000000	0.51406490
644.00000000	0.50994745
645.00000000	0.49847441
646.00000000	0.49339919
647.00000000	0.47797695
648.00000000	0.46162742
649.00000000	0.45742633
650.00000000	0.44833467
651.00000000	0.43215107
652.00000000	0.41701144
653.00000000	0.41456003
654.00000000	0.40323136
655.00000000	0.38785139
656.00000000	0.38067537
657.00000000	0.37069649
658.00000000	0.35698395
659.00000000	0.35149648
660.00000000	0.33780583
661.00000000	0.33651240
662.00000000	0.32429411
663.00000000	0.31299128
664.00000000	0.30755385
665.00000000	0.29590278
666.00000000	0.28914098
667.00000000	0.27756442
668.00000000	0.27452531
669.00000000	0.26467699
670.00000000	0.26165661
671.00000000	0.25409608
672.00000000	0.24729769
673.00000000	0.23659806
674.00000000	0.23496900
675.00000000	0.22739355
676.00000000	0.21429459
677.00000000	0.21644344
678.00000000	0.20485534
679.00000000	0.19904136
680.00000000	0.19544566
681.00000000	0.18884871
682.00000000	0.18030180
683.00000000	0.17793862
684.00000000	0.17230914
685.00000000	0.16952136
686.00000000	0.15796173
687.00000000	0.15998791
688.00000000	0.15494175
689.00000000	0.14778611
690.00000000	0.14312591
691.00000000	0.14346632
692.00000000	0.13998004
693.00000000	0.13432399
694.00000000	0.13203066
695.00000000	0.12576416
696.00000000	0.12504578
697.00000000	0.12117698
698.00000000	0.11255998
699.00000000	0.11128582
700.00000000	0.11222029
701.00000000	0.10505480
702.00000000	0.10324172
703.00000000	0.09626123
704.00000000	0.09848875
705.00000000	0.09444863
706.00000000	0.09165485
707.00000000	0.08737292
708.00000000	0.08579571
709.00000000	0.08036954
710.00000000	0.08083855
711.00000000	0.08037292
712.00000000	0.07709968
713.00000000	0.07597158
714.00000000	0.07502485
715.00000000	0.06812867
716.00000000	0.06896551
717.00000000	0.06293196
718.00000000	0.06693696
719.00000000	0.05855865
720.00000000	0.06018539
721.00000000	0.05595223
722.00000000	0.05742366
723.00000000	0.05573089
724.00000000	0.05247578
725.00000000	0.05341716
726.00000000	0.05140500
727.00000000	0.04736764
728.00000000	0.04744208
729.00000000	0.04809031
730.00000000	0.04411326
731.00000000	0.04201330
732.00000000	0.03867240
733.00000000	0.03931043
734.00000000	0.03849597
735.00000000	0.03103471
736.00000000	0.03464519
737.00000000	0.03244789
738.00000000	0.03201814
739.00000000	0.03274490
740.00000000	0.03219580
741.00000000	0.03283962
742.00000000	0.02996506
743.00000000	0.02848852
744.00000000	0.02885194
745.00000000	0.02641876
746.00000000	0.02494771
747.00000000	0.02893923
748.00000000	0.02068284
749.00000000	0.02504458
750.00000000	0.02416297
751.00000000	0.01720714
752.00000000	0.02263381
753.00000000	0.02024353
754.00000000	0.01766180
755.00000000	0.02062870
756.00000000	0.02170477
757.00000000	0.01940542
758.00000000	0.01870684
759.00000000	0.01685067
760.00000000	0.01605578
761.00000000	0.01766288
762.00000000	0.01615307
763.00000000	0.01426097
764.00000000	0.00946898
765.00000000	0.01596570
766.00000000	0.01280938
767.00000000	0.01243003
768.00000000	0.01813791
769.00000000	0.00781674
770.00000000	0.00790779
771.00000000	0.00640613
772.00000000	0.01256009
773.00000000	0.00980006
774.00000000	0.01276894
775.00000000	0.01260086
776.00000000	0.01619148
777.00000000	0.01235709
778.00000000	0.00420442
779.00000000	0.01050614
780.00000000	0.00799592
781.00000000	0.00884505
782.00000000	0.00880335
783.00000000	0.00323330
784.00000000	0.00120556
785.00000000	0.00329523
786.00000000	0.00403134
787.00000000	0.00530975
788.00000000	0.01140153
789.00000000	0.00689304
790.00000000	0.00409298
791.00000000	0.00296738
792.00000000	0.00589833
793.00000000	0.00232461
794.00000000	0.00822739
795.00000000	0.00955547
796.00000000	0.00730235
797.00000000	0.00508733
798.00000000	0.00179373
799.00000000	0.00696046
800.00000000	0.00004165
801.00000000	0.00451982
802.00000000	0.00222261
803.00000000	0.00343331
804.00000000	0.00481484
805.00000000	0.01018592
806.00000000	0.00696636
807.00000000	0.00890852
808.00000000	0.00000000
809.00000000	0.00000000
810.00000000	0.00113253
811.00000000	0.00004079
812.00000000	0.00694827
813.00000000	0.00675112
814.00000000	0.00223627
815.00000000	0.00000000
816.00000000	0.00308116
817.00000000	0.00218711
818.00000000	0.00300747
819.00000000	0.00068817
820.00000000	0.00722734
821.00000000	0.00363382
822.00000000	0.00223944
823.00000000	0.00559627
824.00000000	0.00943423
825.00000000	0.00395120
826.00000000	0.00987019
827.00000000	0.00060080
828.00000000	0.00526553
829.00000000	0.00000000
830.00000000	0.00000000
831.00000000	0.00145666
832.00000000	0.00432011
833.00000000	0.00000000
834.00000000	0.00470885
835.00000000	0.00000000
836.00000000	0.00018343
837.00000000	0.00000000
838.00000000	0.00009171
839.00000000	0.00364861
840.00000000	0.01033099
841.00000000	0.00000000
842.00000000	0.00000000
843.00000000	0.00018926
844.00000000	0.00000680
845.00000000	0.01110425
846.00000000	0.00002813
847.00000000	0.00019943
848.00000000	0.00335832
849.00000000	0.00000000
850.00000000	0.00182574
851.00000000	0.00000000
852.00000000	0.00000000
853.00000000	0.00000011
854.00000000	0.00941962
855.00000000	0.00000000
856.00000000	0.01043739
857.00000000	0.00084359
858.00000000	0.00009155
859.00000000	0.00000000
860.00000000	0.00000000
861.00000000	0.00000000
862.00000000	0.00000000
863.00000000	0.00000000
864.00000000	0.00070586
865.00000000	0.00000000
866.00000000	0.00283302
867.00000000	0.01329550
868.00000000	0.00000000
869.00000000	0.00120681
870.00000000	0.00884942
871.00000000	0.00000000
872.00000000	0.00006222
873.00000000	0.00176833
874.00000000	0.00000000
875.00000000	0.00000000
876.00000000	0.00046921
877.00000000	0.00000000
878.00000000	0.00000000
879.00000000	0.00224231
880.00000000	0.00093149
881.00000000	0.00118303
882.00000000	0.00146489
883.00000000	0.00436329
884.00000000	0.00000000
885.00000000	0.00733360
886.00000000	0.00000000
887.00000000	0.00000000
888.00000000	0.00797383
889.00000000	0.00654574
890.00000000	0.00404696
891.00000000	0.00000000
892.00000000	0.00245054
893.00000000	0.00000000
894.00000000	0.00000000
895.00000000	0.00000000
896.00000000	0.00000000
897.00000000	0.00000000
898.00000000	0.00000000
899.00000000	0.00492794
900.00000000	0.00000000
