#LICA Lamps Spectra Database
#Website 1: https://guaix.fis.ucm.es/lamps_spectra
#Website 2: http://carlostapia.es/lamparas/lamps.html
#Latest update: 2017/12/15
#Tester: Carlos Eugenio Tapia Ayuga
#Correct for Electrical Dark: Yes (JAZA2310)
#Correct for Detector Non-linearity: Yes (JAZA2310)
#Correct for Flux: Yes
#Start wavelength (nm): 300
#End wavelength (nm): 900
#Steps (nm):	1
#Locus: D65 sRGB Gamma 1 CIE1931
#XYZ coordinates: 0.3612	0.2810	0.0022
#xyY coordinates: 0.5605	0.4360	0.2810
#sRGB: 188	45	0
#CCT Lindbloom (K):	1877
#CCT McCamy (K):	1887
#CCT Hernández-Andrés (K):	1529
#Melatonin: 0.037
#Chlorophyll a: 0.096
#Chlorophyll b: 0.274
#Beta Carotene: 0.097
#Manufacturer: Unknown
#Luminance manufacturer: Unknown
#Other data: La Palma streetlamp
#Begin Processed Spectral Data
W	S
300.00000000	0.00000000
301.00000000	0.00000000
302.00000000	0.00000000
303.00000000	0.00000000
304.00000000	0.00000000
305.00000000	0.00000000
306.00000000	0.00000000
307.00000000	0.00000000
308.00000000	0.00000000
309.00000000	0.00060175
310.00000000	0.00000000
311.00000000	0.00000000
312.00000000	0.00000000
313.00000000	0.00000000
314.00000000	0.00000000
315.00000000	0.00057419
316.00000000	0.00054660
317.00000000	0.00000000
318.00000000	0.00124576
319.00000000	0.00017121
320.00000000	0.00000000
321.00000000	0.00071723
322.00000000	0.00000000
323.00000000	0.00000000
324.00000000	0.00000000
325.00000000	0.00000000
326.00000000	0.00000000
327.00000000	0.00000000
328.00000000	0.00008532
329.00000000	0.00215791
330.00000000	0.00000000
331.00000000	0.00000681
332.00000000	0.00000000
333.00000000	0.00000000
334.00000000	0.00000000
335.00000000	0.00069078
336.00000000	0.00284764
337.00000000	0.00240553
338.00000000	0.00000000
339.00000000	0.00000000
340.00000000	0.00214031
341.00000000	0.00000024
342.00000000	0.00000000
343.00000000	0.00086612
344.00000000	0.00000000
345.00000000	0.00144529
346.00000000	0.00005646
347.00000000	0.00000000
348.00000000	0.00000000
349.00000000	0.00000000
350.00000000	0.00000000
351.00000000	0.00005908
352.00000000	0.00062516
353.00000000	0.00031919
354.00000000	0.00004726
355.00000000	0.00000000
356.00000000	0.00046954
357.00000000	0.00014820
358.00000000	0.00000000
359.00000000	0.00000000
360.00000000	0.00032076
361.00000000	0.00000000
362.00000000	0.00003482
363.00000000	0.00000000
364.00000000	0.00000000
365.00000000	0.00044274
366.00000000	0.00000000
367.00000000	0.00000000
368.00000000	0.00000000
369.00000000	0.00021023
370.00000000	0.00000000
371.00000000	0.00000000
372.00000000	0.00000000
373.00000000	0.00003571
374.00000000	0.00265555
375.00000000	0.00000000
376.00000000	0.00000000
377.00000000	0.00000000
378.00000000	0.00000000
379.00000000	0.00000000
380.00000000	0.00191050
381.00000000	0.00000000
382.00000000	0.00026793
383.00000000	0.00000000
384.00000000	0.00000000
385.00000000	0.00022498
386.00000000	0.00000000
387.00000000	0.00000000
388.00000000	0.00000000
389.00000000	0.00000000
390.00000000	0.00000000
391.00000000	0.00040732
392.00000000	0.00000000
393.00000000	0.00000000
394.00000000	0.00000000
395.00000000	0.00025280
396.00000000	0.00000000
397.00000000	0.00000000
398.00000000	0.00009493
399.00000000	0.00000000
400.00000000	0.00003161
401.00000000	0.00000000
402.00000000	0.00000000
403.00000000	0.00000000
404.00000000	0.00000000
405.00000000	0.00002775
406.00000000	0.00017995
407.00000000	0.00000000
408.00000000	0.00000000
409.00000000	0.00000000
410.00000000	0.00047781
411.00000000	0.00000000
412.00000000	0.00070964
413.00000000	0.00018095
414.00000000	0.00013529
415.00000000	0.00000000
416.00000000	0.00000000
417.00000000	0.00004856
418.00000000	0.00000000
419.00000000	0.00000000
420.00000000	0.00000033
421.00000000	0.00000884
422.00000000	0.00027517
423.00000000	0.00000000
424.00000000	0.00063812
425.00000000	0.00017753
426.00000000	0.00000000
427.00000000	0.00048539
428.00000000	0.00006771
429.00000000	0.00071437
430.00000000	0.00086853
431.00000000	0.00000354
432.00000000	0.00009057
433.00000000	0.00000000
434.00000000	0.00044671
435.00000000	0.00070975
436.00000000	0.00013203
437.00000000	0.00142525
438.00000000	0.00194697
439.00000000	0.00000031
440.00000000	0.00050165
441.00000000	0.00004810
442.00000000	0.00038407
443.00000000	0.00110571
444.00000000	0.00057072
445.00000000	0.00077194
446.00000000	0.00036622
447.00000000	0.00331358
448.00000000	0.00301902
449.00000000	0.00109975
450.00000000	0.00252059
451.00000000	0.00167618
452.00000000	0.00131281
453.00000000	0.00299022
454.00000000	0.00199031
455.00000000	0.00245992
456.00000000	0.00239647
457.00000000	0.00279567
458.00000000	0.00207747
459.00000000	0.00237475
460.00000000	0.00078559
461.00000000	0.00042267
462.00000000	0.00133524
463.00000000	0.00129519
464.00000000	0.00043061
465.00000000	0.00011105
466.00000000	0.00046607
467.00000000	0.00004881
468.00000000	0.00250972
469.00000000	0.00157544
470.00000000	0.00034182
471.00000000	0.00249844
472.00000000	0.00082676
473.00000000	0.00122570
474.00000000	0.00065072
475.00000000	0.00001189
476.00000000	0.00140951
477.00000000	0.00118042
478.00000000	0.00110361
479.00000000	0.00130816
480.00000000	0.00165185
481.00000000	0.00131294
482.00000000	0.00168490
483.00000000	0.00086145
484.00000000	0.00104368
485.00000000	0.00100445
486.00000000	0.00142711
487.00000000	0.00087002
488.00000000	0.00094607
489.00000000	0.00083218
490.00000000	0.00169447
491.00000000	0.00208989
492.00000000	0.00156786
493.00000000	0.00161571
494.00000000	0.00157540
495.00000000	0.00211631
496.00000000	0.00199409
497.00000000	0.00231297
498.00000000	0.00225822
499.00000000	0.00241340
500.00000000	0.00368808
501.00000000	0.00326026
502.00000000	0.00322956
503.00000000	0.00436493
504.00000000	0.00453496
505.00000000	0.00554118
506.00000000	0.00533678
507.00000000	0.00683573
508.00000000	0.00639405
509.00000000	0.00643389
510.00000000	0.00763210
511.00000000	0.00787946
512.00000000	0.00854140
513.00000000	0.00902169
514.00000000	0.01080910
515.00000000	0.01115953
516.00000000	0.01211905
517.00000000	0.01271875
518.00000000	0.01500129
519.00000000	0.01492662
520.00000000	0.01632035
521.00000000	0.01760176
522.00000000	0.01833693
523.00000000	0.01989327
524.00000000	0.02037908
525.00000000	0.02301252
526.00000000	0.02403929
527.00000000	0.02451998
528.00000000	0.02655424
529.00000000	0.02904961
530.00000000	0.03097184
531.00000000	0.03278004
532.00000000	0.03631561
533.00000000	0.03940012
534.00000000	0.04094431
535.00000000	0.04523974
536.00000000	0.04805242
537.00000000	0.05060750
538.00000000	0.05538906
539.00000000	0.06087570
540.00000000	0.06420758
541.00000000	0.06925194
542.00000000	0.07514106
543.00000000	0.08009030
544.00000000	0.08570562
545.00000000	0.09175391
546.00000000	0.09703062
547.00000000	0.10476465
548.00000000	0.10909238
549.00000000	0.11972243
550.00000000	0.12732789
551.00000000	0.13518814
552.00000000	0.14611987
553.00000000	0.15122579
554.00000000	0.16254097
555.00000000	0.17140518
556.00000000	0.18367687
557.00000000	0.19211786
558.00000000	0.20421824
559.00000000	0.21471608
560.00000000	0.22648389
561.00000000	0.23970188
562.00000000	0.24757593
563.00000000	0.25832458
564.00000000	0.26682709
565.00000000	0.27839484
566.00000000	0.29196757
567.00000000	0.30552772
568.00000000	0.31493097
569.00000000	0.33414124
570.00000000	0.34447565
571.00000000	0.35557459
572.00000000	0.37029113
573.00000000	0.38063625
574.00000000	0.39993672
575.00000000	0.41591588
576.00000000	0.43128058
577.00000000	0.45588224
578.00000000	0.47387095
579.00000000	0.49585298
580.00000000	0.52552023
581.00000000	0.54878556
582.00000000	0.58038042
583.00000000	0.61400072
584.00000000	0.64190129
585.00000000	0.68382430
586.00000000	0.72983234
587.00000000	0.77804438
588.00000000	0.81577991
589.00000000	0.85669381
590.00000000	0.89913709
591.00000000	0.94454885
592.00000000	0.97123308
593.00000000	1.00000000
594.00000000	0.99914283
595.00000000	0.97645242
596.00000000	0.93494562
597.00000000	0.87557325
598.00000000	0.81264329
599.00000000	0.74817376
600.00000000	0.68857153
601.00000000	0.63459481
602.00000000	0.59660470
603.00000000	0.56032315
604.00000000	0.52388259
605.00000000	0.49038407
606.00000000	0.46232041
607.00000000	0.43864534
608.00000000	0.41957730
609.00000000	0.40149126
610.00000000	0.38981492
611.00000000	0.37089171
612.00000000	0.35947819
613.00000000	0.34914869
614.00000000	0.33581647
615.00000000	0.33415187
616.00000000	0.32565881
617.00000000	0.32187983
618.00000000	0.31566787
619.00000000	0.30679628
620.00000000	0.30586222
621.00000000	0.29320639
622.00000000	0.29105598
623.00000000	0.27956874
624.00000000	0.27646092
625.00000000	0.27232377
626.00000000	0.26697733
627.00000000	0.26276796
628.00000000	0.25522820
629.00000000	0.24997048
630.00000000	0.24564242
631.00000000	0.23726136
632.00000000	0.23387561
633.00000000	0.23381925
634.00000000	0.22418152
635.00000000	0.22129157
636.00000000	0.21543049
637.00000000	0.20787395
638.00000000	0.20869498
639.00000000	0.20294063
640.00000000	0.19471078
641.00000000	0.19079690
642.00000000	0.18701745
643.00000000	0.18084487
644.00000000	0.17899709
645.00000000	0.17361665
646.00000000	0.16976472
647.00000000	0.16880608
648.00000000	0.16376839
649.00000000	0.16078479
650.00000000	0.15446366
651.00000000	0.15507757
652.00000000	0.14667977
653.00000000	0.14718499
654.00000000	0.14080563
655.00000000	0.13623901
656.00000000	0.13161359
657.00000000	0.12934678
658.00000000	0.12763677
659.00000000	0.12055378
660.00000000	0.12011847
661.00000000	0.11390489
662.00000000	0.11467774
663.00000000	0.11152448
664.00000000	0.10317490
665.00000000	0.10353754
666.00000000	0.09779289
667.00000000	0.09681455
668.00000000	0.09475173
669.00000000	0.09380270
670.00000000	0.08928048
671.00000000	0.08860677
672.00000000	0.08734949
673.00000000	0.08258485
674.00000000	0.07784147
675.00000000	0.07645892
676.00000000	0.07561254
677.00000000	0.07488738
678.00000000	0.07032300
679.00000000	0.07218528
680.00000000	0.06675574
681.00000000	0.06460781
682.00000000	0.06477689
683.00000000	0.06314419
684.00000000	0.05784300
685.00000000	0.05995345
686.00000000	0.05793261
687.00000000	0.05311618
688.00000000	0.05362472
689.00000000	0.05169425
690.00000000	0.04966577
691.00000000	0.04729520
692.00000000	0.04974368
693.00000000	0.04751566
694.00000000	0.04569759
695.00000000	0.04369894
696.00000000	0.03962072
697.00000000	0.04023167
698.00000000	0.04211974
699.00000000	0.03907907
700.00000000	0.03833766
701.00000000	0.03581425
702.00000000	0.03391063
703.00000000	0.03370633
704.00000000	0.03090192
705.00000000	0.03176981
706.00000000	0.03144316
707.00000000	0.03066088
708.00000000	0.02827789
709.00000000	0.03006247
710.00000000	0.02758292
711.00000000	0.02617510
712.00000000	0.02390156
713.00000000	0.02544645
714.00000000	0.02637732
715.00000000	0.02178850
716.00000000	0.02395021
717.00000000	0.02149858
718.00000000	0.01892523
719.00000000	0.01987835
720.00000000	0.01810808
721.00000000	0.02177882
722.00000000	0.01554648
723.00000000	0.01668904
724.00000000	0.01696520
725.00000000	0.01410976
726.00000000	0.01726068
727.00000000	0.01362753
728.00000000	0.01693829
729.00000000	0.01569112
730.00000000	0.01515164
731.00000000	0.01414079
732.00000000	0.01257865
733.00000000	0.01334467
734.00000000	0.01062647
735.00000000	0.01071658
736.00000000	0.01035035
737.00000000	0.00878517
738.00000000	0.01185946
739.00000000	0.00922599
740.00000000	0.00839482
741.00000000	0.01315357
742.00000000	0.00971211
743.00000000	0.00984997
744.00000000	0.00899038
745.00000000	0.00872040
746.00000000	0.00841883
747.00000000	0.00717446
748.00000000	0.00693133
749.00000000	0.00869007
750.00000000	0.00670932
751.00000000	0.00621032
752.00000000	0.00540451
753.00000000	0.00495221
754.00000000	0.00265886
755.00000000	0.00688644
756.00000000	0.00783151
757.00000000	0.00299054
758.00000000	0.00565737
759.00000000	0.00529190
760.00000000	0.00406973
761.00000000	0.00664317
762.00000000	0.00237923
763.00000000	0.00418406
764.00000000	0.00051657
765.00000000	0.00152833
766.00000000	0.00373722
767.00000000	0.00205762
768.00000000	0.00002880
769.00000000	0.00145070
770.00000000	0.00399848
771.00000000	0.00140884
772.00000000	0.00606557
773.00000000	0.00587036
774.00000000	0.00264095
775.00000000	0.00412733
776.00000000	0.00038578
777.00000000	0.00346546
778.00000000	0.00007992
779.00000000	0.00117261
780.00000000	0.00082003
781.00000000	0.00000000
782.00000000	0.00000000
783.00000000	0.00426244
784.00000000	0.00000000
785.00000000	0.00236094
786.00000000	0.00030580
787.00000000	0.00154171
788.00000000	0.00031642
789.00000000	0.00259413
790.00000000	0.00043274
791.00000000	0.00140066
792.00000000	0.00176460
793.00000000	0.00000000
794.00000000	0.00319337
795.00000000	0.00000000
796.00000000	0.00176668
797.00000000	0.00000000
798.00000000	0.00000000
799.00000000	0.00000000
800.00000000	0.00000000
801.00000000	0.00000000
802.00000000	0.00369745
803.00000000	0.00000000
804.00000000	0.00068855
805.00000000	0.00000000
806.00000000	0.00090002
807.00000000	0.00132715
808.00000000	0.00000000
809.00000000	0.00122224
810.00000000	0.00006796
811.00000000	0.00108891
812.00000000	0.00000000
813.00000000	0.00000000
814.00000000	0.00000000
815.00000000	0.00000000
816.00000000	0.00000000
817.00000000	0.00053875
818.00000000	0.00069265
819.00000000	0.00000000
820.00000000	0.00016381
821.00000000	0.00028772
822.00000000	0.00000000
823.00000000	0.00000000
824.00000000	0.00000000
825.00000000	0.00000000
826.00000000	0.00000000
827.00000000	0.00385299
828.00000000	0.00000000
829.00000000	0.00000000
830.00000000	0.00291313
831.00000000	0.00000000
832.00000000	0.00000000
833.00000000	0.00000000
834.00000000	0.00011101
835.00000000	0.00000000
836.00000000	0.00000000
837.00000000	0.00001350
838.00000000	0.00000000
839.00000000	0.00000000
840.00000000	0.00000000
841.00000000	0.00000000
842.00000000	0.01397904
843.00000000	0.00000000
844.00000000	0.00000000
845.00000000	0.00000000
846.00000000	0.00000581
847.00000000	0.00000000
848.00000000	0.00000000
849.00000000	0.00068478
850.00000000	0.00000000
851.00000000	0.00000000
852.00000000	0.00000000
853.00000000	0.00000000
854.00000000	0.00316011
855.00000000	0.00000626
856.00000000	0.00000000
857.00000000	0.00000000
858.00000000	0.00000000
859.00000000	0.00038838
860.00000000	0.00000000
861.00000000	0.00170193
862.00000000	0.00000000
863.00000000	0.00023799
864.00000000	0.00000000
865.00000000	0.00000000
866.00000000	0.00000000
867.00000000	0.00000000
868.00000000	0.00000000
869.00000000	0.00000000
870.00000000	0.00000000
871.00000000	0.00225569
872.00000000	0.00701709
873.00000000	0.00357687
874.00000000	0.00000000
875.00000000	0.00403089
876.00000000	0.00109591
877.00000000	0.00002967
878.00000000	0.00000000
879.00000000	0.00004497
880.00000000	0.00000000
881.00000000	0.00059912
882.00000000	0.00000000
883.00000000	0.00297783
884.00000000	0.00322957
885.00000000	0.00000000
886.00000000	0.00000000
887.00000000	0.00000000
888.00000000	0.00024995
889.00000000	0.00000000
890.00000000	0.00000000
891.00000000	0.00032860
892.00000000	0.00000000
893.00000000	0.00000000
894.00000000	0.00000000
895.00000000	0.00162428
896.00000000	0.00000000
897.00000000	0.00000000
898.00000000	0.00183495
899.00000000	0.00060159
900.00000000	0.00131176
