#LICA Lamps Spectra Database
#Website 1: https://guaix.fis.ucm.es/lamps_spectra
#Website 2: http://carlostapia.es/lamparas/lamps.html
#Latest update: 2017/12/15
#Tester: Carlos Eugenio Tapia Ayuga
#Correct for Electrical Dark: Yes (JAZA2310)
#Correct for Detector Non-linearity: Yes (JAZA2310)
#Correct for Flux: Yes
#Start wavelength (nm): 300
#End wavelength (nm): 900
#Steps (nm):	1
#Locus: D65 sRGB Gamma 1 CIE1931
#XYZ coordinates: 0.4123	0.3879	0.5153
#xyY coordinates: 0.3135	0.2948	0.3879
#sRGB: 123	89	125
#CCT Lindbloom (K):	6801
#CCT McCamy (K):	6785
#CCT Hernández-Andrés (K):	6816
#Melatonin: 0.885
#Chlorophyll a: 0.115
#Chlorophyll b: 1.266
#Beta Carotene: 0.116
#Manufacturer: Unknown
#Luminance manufacturer: Unknown
#Other data: Madrid streetlamp at Facultad de Farmacia
#Begin Processed Spectral Data
W	S
300.00000000	0.00000000
301.00000000	0.00000000
302.00000000	0.00000000
303.00000000	0.00390968
304.00000000	0.00000000
305.00000000	0.00000000
306.00000000	0.00000000
307.00000000	0.00000000
308.00000000	0.00140398
309.00000000	0.00503477
310.00000000	0.00606086
311.00000000	0.00679565
312.00000000	0.00000000
313.00000000	0.01688714
314.00000000	0.00000000
315.00000000	0.00000000
316.00000000	0.00000000
317.00000000	0.00000000
318.00000000	0.00763160
319.00000000	0.00579724
320.00000000	0.00000000
321.00000000	0.00479024
322.00000000	0.00000000
323.00000000	0.00000000
324.00000000	0.00000000
325.00000000	0.00000000
326.00000000	0.00000000
327.00000000	0.00576909
328.00000000	0.00000000
329.00000000	0.00591891
330.00000000	0.00396884
331.00000000	0.00000000
332.00000000	0.01253778
333.00000000	0.00000000
334.00000000	0.00622261
335.00000000	0.00000000
336.00000000	0.00754595
337.00000000	0.00000000
338.00000000	0.00000000
339.00000000	0.00000000
340.00000000	0.00000000
341.00000000	0.00000000
342.00000000	0.00000000
343.00000000	0.00000000
344.00000000	0.00000000
345.00000000	0.00000000
346.00000000	0.00000000
347.00000000	0.00000000
348.00000000	0.00000000
349.00000000	0.00000000
350.00000000	0.00000000
351.00000000	0.00000000
352.00000000	0.00000000
353.00000000	0.00014028
354.00000000	0.00000000
355.00000000	0.00000000
356.00000000	0.00000000
357.00000000	0.00000000
358.00000000	0.00000000
359.00000000	0.00000000
360.00000000	0.00417807
361.00000000	0.00000000
362.00000000	0.00138585
363.00000000	0.00015101
364.00000000	0.00000000
365.00000000	0.00000000
366.00000000	0.00000000
367.00000000	0.00000000
368.00000000	0.00000000
369.00000000	0.00189019
370.00000000	0.00233703
371.00000000	0.00209106
372.00000000	0.00000000
373.00000000	0.00000000
374.00000000	0.00000000
375.00000000	0.00000000
376.00000000	0.00000000
377.00000000	0.00000000
378.00000000	0.00000000
379.00000000	0.00131452
380.00000000	0.00000000
381.00000000	0.00000000
382.00000000	0.00000000
383.00000000	0.00000000
384.00000000	0.00000000
385.00000000	0.00000000
386.00000000	0.00000000
387.00000000	0.00000000
388.00000000	0.00319659
389.00000000	0.00000000
390.00000000	0.00003531
391.00000000	0.00000000
392.00000000	0.00000000
393.00000000	0.00000000
394.00000000	0.00000000
395.00000000	0.00141758
396.00000000	0.00492145
397.00000000	0.00880369
398.00000000	0.00241766
399.00000000	0.00157360
400.00000000	0.00365989
401.00000000	0.00599692
402.00000000	0.00606086
403.00000000	0.01306955
404.00000000	0.01403051
405.00000000	0.01497882
406.00000000	0.01701812
407.00000000	0.02207340
408.00000000	0.02869490
409.00000000	0.03315328
410.00000000	0.04458577
411.00000000	0.05403122
412.00000000	0.06668828
413.00000000	0.07241633
414.00000000	0.09229776
415.00000000	0.10189135
416.00000000	0.11305044
417.00000000	0.13769085
418.00000000	0.15536623
419.00000000	0.17333934
420.00000000	0.19815867
421.00000000	0.21840272
422.00000000	0.25266774
423.00000000	0.28077552
424.00000000	0.31088251
425.00000000	0.33156219
426.00000000	0.36663859
427.00000000	0.40210743
428.00000000	0.43527097
429.00000000	0.47665586
430.00000000	0.51545847
431.00000000	0.53153280
432.00000000	0.58348202
433.00000000	0.62299485
434.00000000	0.64596289
435.00000000	0.68217440
436.00000000	0.71844793
437.00000000	0.75410763
438.00000000	0.79229211
439.00000000	0.83417274
440.00000000	0.84949033
441.00000000	0.90589579
442.00000000	0.92426087
443.00000000	0.95128149
444.00000000	0.97013993
445.00000000	0.98706500
446.00000000	1.00000000
447.00000000	0.99433469
448.00000000	0.97908533
449.00000000	0.96673817
450.00000000	0.92361721
451.00000000	0.88387774
452.00000000	0.82410415
453.00000000	0.76970697
454.00000000	0.69590360
455.00000000	0.65828930
456.00000000	0.59819222
457.00000000	0.54863895
458.00000000	0.49812472
459.00000000	0.45433172
460.00000000	0.42295029
461.00000000	0.39470295
462.00000000	0.35820897
463.00000000	0.33407481
464.00000000	0.30426555
465.00000000	0.28358945
466.00000000	0.25698848
467.00000000	0.23153597
468.00000000	0.22399646
469.00000000	0.20316839
470.00000000	0.18347210
471.00000000	0.17437115
472.00000000	0.15658913
473.00000000	0.14601025
474.00000000	0.13188932
475.00000000	0.12504094
476.00000000	0.11182921
477.00000000	0.10542982
478.00000000	0.10108404
479.00000000	0.09482874
480.00000000	0.09155128
481.00000000	0.08523897
482.00000000	0.08059020
483.00000000	0.08015791
484.00000000	0.07661229
485.00000000	0.07538700
486.00000000	0.07284218
487.00000000	0.07120369
488.00000000	0.07180965
489.00000000	0.06998149
490.00000000	0.07168130
491.00000000	0.07596219
492.00000000	0.07717246
493.00000000	0.08129303
494.00000000	0.08461344
495.00000000	0.09052829
496.00000000	0.09374206
497.00000000	0.09992912
498.00000000	0.10539355
499.00000000	0.11085966
500.00000000	0.11962184
501.00000000	0.12902338
502.00000000	0.13687327
503.00000000	0.14430519
504.00000000	0.15095794
505.00000000	0.16021706
506.00000000	0.17093241
507.00000000	0.18132760
508.00000000	0.19979741
509.00000000	0.20191304
510.00000000	0.21515102
511.00000000	0.22852571
512.00000000	0.23579563
513.00000000	0.24153728
514.00000000	0.26165704
515.00000000	0.26642414
516.00000000	0.27920287
517.00000000	0.28509101
518.00000000	0.29709368
519.00000000	0.30175580
520.00000000	0.31057810
521.00000000	0.31603943
522.00000000	0.32953555
523.00000000	0.33686297
524.00000000	0.34002163
525.00000000	0.34885514
526.00000000	0.35889725
527.00000000	0.35965566
528.00000000	0.36980655
529.00000000	0.37925223
530.00000000	0.38001327
531.00000000	0.38396684
532.00000000	0.38872511
533.00000000	0.39324505
534.00000000	0.39421746
535.00000000	0.40030146
536.00000000	0.40305264
537.00000000	0.40613472
538.00000000	0.41088893
539.00000000	0.41487471
540.00000000	0.42444063
541.00000000	0.42018956
542.00000000	0.42238583
543.00000000	0.42460715
544.00000000	0.42727579
545.00000000	0.42748192
546.00000000	0.42918077
547.00000000	0.43332496
548.00000000	0.43413037
549.00000000	0.42924399
550.00000000	0.43212257
551.00000000	0.43393403
552.00000000	0.43028749
553.00000000	0.44180873
554.00000000	0.43914343
555.00000000	0.43984029
556.00000000	0.44585654
557.00000000	0.44717368
558.00000000	0.44406512
559.00000000	0.45009353
560.00000000	0.45334499
561.00000000	0.45262165
562.00000000	0.45030180
563.00000000	0.45372933
564.00000000	0.44655340
565.00000000	0.45020232
566.00000000	0.44808931
567.00000000	0.45139684
568.00000000	0.44795142
569.00000000	0.45044828
570.00000000	0.44710473
571.00000000	0.44086686
572.00000000	0.44587300
573.00000000	0.43450898
574.00000000	0.44251752
575.00000000	0.44015234
576.00000000	0.43595471
577.00000000	0.43317180
578.00000000	0.43320544
579.00000000	0.42837822
580.00000000	0.42695444
581.00000000	0.43054491
582.00000000	0.42726720
583.00000000	0.42863373
584.00000000	0.43290818
585.00000000	0.42465821
586.00000000	0.42771667
587.00000000	0.41866320
588.00000000	0.41774518
589.00000000	0.41184297
590.00000000	0.40546672
591.00000000	0.40737170
592.00000000	0.40896463
593.00000000	0.39867680
594.00000000	0.40043959
595.00000000	0.38741012
596.00000000	0.39743433
597.00000000	0.37988635
598.00000000	0.38175626
599.00000000	0.38474315
600.00000000	0.37813024
601.00000000	0.37888961
602.00000000	0.37374056
603.00000000	0.37181554
604.00000000	0.37001029
605.00000000	0.35930138
606.00000000	0.36306839
607.00000000	0.35443027
608.00000000	0.34909824
609.00000000	0.34212152
610.00000000	0.33823403
611.00000000	0.32823486
612.00000000	0.32663454
613.00000000	0.32375692
614.00000000	0.32402578
615.00000000	0.32195715
616.00000000	0.31686870
617.00000000	0.31325270
618.00000000	0.31485660
619.00000000	0.31222948
620.00000000	0.30256312
621.00000000	0.29758537
622.00000000	0.28586803
623.00000000	0.29009906
624.00000000	0.28465442
625.00000000	0.28433283
626.00000000	0.27856088
627.00000000	0.27312770
628.00000000	0.26540735
629.00000000	0.26007127
630.00000000	0.25469057
631.00000000	0.25526052
632.00000000	0.24519241
633.00000000	0.23908193
634.00000000	0.23691763
635.00000000	0.23246640
636.00000000	0.23068285
637.00000000	0.22137029
638.00000000	0.22176011
639.00000000	0.21140787
640.00000000	0.21477337
641.00000000	0.21002822
642.00000000	0.20550995
643.00000000	0.20224585
644.00000000	0.19986015
645.00000000	0.19318545
646.00000000	0.19379929
647.00000000	0.18650933
648.00000000	0.18523155
649.00000000	0.18074072
650.00000000	0.17782325
651.00000000	0.17056119
652.00000000	0.17115642
653.00000000	0.17015300
654.00000000	0.16185961
655.00000000	0.15890016
656.00000000	0.15297361
657.00000000	0.15207492
658.00000000	0.14713343
659.00000000	0.14712747
660.00000000	0.14818576
661.00000000	0.14134669
662.00000000	0.13590110
663.00000000	0.13620099
664.00000000	0.13485665
665.00000000	0.13056311
666.00000000	0.12386122
667.00000000	0.12020705
668.00000000	0.12205095
669.00000000	0.11831424
670.00000000	0.11431844
671.00000000	0.11233092
672.00000000	0.11359104
673.00000000	0.10657185
674.00000000	0.10781981
675.00000000	0.10276738
676.00000000	0.10235657
677.00000000	0.09491916
678.00000000	0.09373800
679.00000000	0.08862284
680.00000000	0.09116646
681.00000000	0.09063756
682.00000000	0.09380409
683.00000000	0.08686959
684.00000000	0.07676832
685.00000000	0.07823982
686.00000000	0.08369662
687.00000000	0.07828968
688.00000000	0.08153565
689.00000000	0.07237053
690.00000000	0.07557547
691.00000000	0.06862714
692.00000000	0.07435948
693.00000000	0.06804169
694.00000000	0.06527285
695.00000000	0.06803906
696.00000000	0.06728208
697.00000000	0.06184007
698.00000000	0.05881286
699.00000000	0.05670630
700.00000000	0.05960014
701.00000000	0.05996730
702.00000000	0.05763028
703.00000000	0.05774503
704.00000000	0.05494279
705.00000000	0.04292748
706.00000000	0.04895613
707.00000000	0.05404815
708.00000000	0.04568486
709.00000000	0.04545440
710.00000000	0.03920293
711.00000000	0.04334330
712.00000000	0.04484987
713.00000000	0.03991840
714.00000000	0.03901207
715.00000000	0.03642240
716.00000000	0.03997518
717.00000000	0.03663926
718.00000000	0.03619075
719.00000000	0.03816396
720.00000000	0.03682057
721.00000000	0.03347869
722.00000000	0.03415838
723.00000000	0.02769983
724.00000000	0.02967375
725.00000000	0.02803191
726.00000000	0.02426252
727.00000000	0.03201412
728.00000000	0.01934512
729.00000000	0.02293893
730.00000000	0.02511516
731.00000000	0.02335094
732.00000000	0.02406737
733.00000000	0.02448582
734.00000000	0.02196390
735.00000000	0.02462705
736.00000000	0.02020850
737.00000000	0.02369949
738.00000000	0.01984707
739.00000000	0.01960349
740.00000000	0.01571123
741.00000000	0.02247325
742.00000000	0.01605286
743.00000000	0.01551346
744.00000000	0.01500053
745.00000000	0.01617119
746.00000000	0.01998401
747.00000000	0.01364784
748.00000000	0.01681891
749.00000000	0.01463170
750.00000000	0.01864731
751.00000000	0.01389190
752.00000000	0.01572411
753.00000000	0.00891272
754.00000000	0.01039901
755.00000000	0.01294025
756.00000000	0.01072585
757.00000000	0.00677299
758.00000000	0.00625625
759.00000000	0.00700225
760.00000000	0.00858278
761.00000000	0.00816242
762.00000000	0.00586380
763.00000000	0.01336252
764.00000000	0.00273615
765.00000000	0.01163432
766.00000000	0.00859971
767.00000000	0.00982191
768.00000000	0.00505409
769.00000000	0.01271480
770.00000000	0.00229838
771.00000000	0.00643780
772.00000000	0.00430642
773.00000000	0.00000000
774.00000000	0.00675796
775.00000000	0.00622666
776.00000000	0.00099316
777.00000000	0.01614805
778.00000000	0.00212231
779.00000000	0.00561259
780.00000000	0.01049348
781.00000000	0.00574833
782.00000000	0.00000000
783.00000000	0.00000000
784.00000000	0.00436892
785.00000000	0.00443214
786.00000000	0.01333007
787.00000000	0.00712488
788.00000000	0.01054382
789.00000000	0.00137965
790.00000000	0.00155333
791.00000000	0.00442284
792.00000000	0.00354037
793.00000000	0.00369950
794.00000000	0.00000000
795.00000000	0.00000000
796.00000000	0.00319683
797.00000000	0.01024059
798.00000000	0.00000000
799.00000000	0.00185583
800.00000000	0.00000000
801.00000000	0.00000000
802.00000000	0.00737872
803.00000000	0.00000000
804.00000000	0.00000000
805.00000000	0.00135078
806.00000000	0.00000000
807.00000000	0.00000000
808.00000000	0.01165126
809.00000000	0.01376522
810.00000000	0.00135913
811.00000000	0.00190522
812.00000000	0.00000000
813.00000000	0.00000000
814.00000000	0.00000000
815.00000000	0.00000000
816.00000000	0.00000000
817.00000000	0.00000000
818.00000000	0.00173464
819.00000000	0.00000000
820.00000000	0.00000000
821.00000000	0.00000000
822.00000000	0.00653657
823.00000000	0.00038123
824.00000000	0.00996266
825.00000000	0.00000000
826.00000000	0.00000000
827.00000000	0.00000000
828.00000000	0.00000000
829.00000000	0.00000000
830.00000000	0.00000000
831.00000000	0.00000000
832.00000000	0.00000000
833.00000000	0.00000000
834.00000000	0.00000000
835.00000000	0.00513616
836.00000000	0.00000000
837.00000000	0.00000000
838.00000000	0.00000000
839.00000000	0.01531091
840.00000000	0.00000000
841.00000000	0.00000000
842.00000000	0.00000000
843.00000000	0.00000000
844.00000000	0.01054453
845.00000000	0.00000000
846.00000000	0.00000000
847.00000000	0.00000000
848.00000000	0.00000000
849.00000000	0.00000000
850.00000000	0.00000000
851.00000000	0.00000000
852.00000000	0.00000000
853.00000000	0.02052485
854.00000000	0.00000000
855.00000000	0.00000000
856.00000000	0.00000000
857.00000000	0.00000000
858.00000000	0.00000000
859.00000000	0.00000000
860.00000000	0.00000000
861.00000000	0.00000000
862.00000000	0.00000000
863.00000000	0.00000000
864.00000000	0.00162776
865.00000000	0.00328725
866.00000000	0.00000000
867.00000000	0.00000000
868.00000000	0.02182958
869.00000000	0.00000000
870.00000000	0.00000000
871.00000000	0.00665466
872.00000000	0.00000000
873.00000000	0.00195961
874.00000000	0.00000000
875.00000000	0.00000000
876.00000000	0.00000000
877.00000000	0.00000000
878.00000000	0.00000000
879.00000000	0.00000000
880.00000000	0.00770961
881.00000000	0.00000000
882.00000000	0.00000000
883.00000000	0.00000000
884.00000000	0.02254863
885.00000000	0.00189758
886.00000000	0.00000000
887.00000000	0.00000000
888.00000000	0.00000000
889.00000000	0.01140672
890.00000000	0.00000000
891.00000000	0.02277122
892.00000000	0.00000000
893.00000000	0.00000000
894.00000000	0.00000000
895.00000000	0.00363890
896.00000000	0.00000000
897.00000000	0.00000000
898.00000000	0.00000000
899.00000000	0.00000000
900.00000000	0.00000000
