#LICA Lamps Spectra Database
#Website 1: https://guaix.fis.ucm.es/lamps_spectra
#Website 2: http://carlostapia.es/lamparas/lamps.html
#Latest update: 2017/12/17
#Tester: Carlos Eugenio Tapia Ayuga
#Correct for Electrical Dark: Yes (JAZA2310)
#Correct for Detector Non-linearity: Yes (JAZA2310)
#Correct for Flux: Yes
#Start wavelength (nm): 300
#End wavelength (nm): 900
#Steps (nm):	1
#Locus: D65 sRGB Gamma 1 CIE1931
#XYZ coordinates: 0.6754	0.5477	0.0961
#xyY coordinates: 0.5120	0.4152	0.5477
#sRGB: 255	74	5
#CCT Lindbloom (K):	2140
#CCT McCamy (K):	2120
#CCT Hernández-Andrés (K):	1897
#Melatonin: 0.186
#Chlorophyll a: 0.399
#Chlorophyll b: 0.500
#Beta Carotene: 0.399
#Manufacturer: IKEA
#Luminance manufacturer: 200lm
#Other data: Manufacturer 2200K. 2.3W
#Begin Processed Spectral Data
W	S
300.00000000	0.00000000
301.00000000	0.00000000
302.00000000	0.00000000
303.00000000	0.00000000
304.00000000	0.00000000
305.00000000	0.00000000
306.00000000	0.00000000
307.00000000	0.00000000
308.00000000	0.00000000
309.00000000	0.00000000
310.00000000	0.00000000
311.00000000	0.00000000
312.00000000	0.00000000
313.00000000	0.00000000
314.00000000	0.00000000
315.00000000	0.00000000
316.00000000	0.00000000
317.00000000	0.00054792
318.00000000	0.00000000
319.00000000	0.00004661
320.00000000	0.00000000
321.00000000	0.00009135
322.00000000	0.00000000
323.00000000	0.00000000
324.00000000	0.00000000
325.00000000	0.00000000
326.00000000	0.00000000
327.00000000	0.00000000
328.00000000	0.00000000
329.00000000	0.00000000
330.00000000	0.00000000
331.00000000	0.00000000
332.00000000	0.00066990
333.00000000	0.00001677
334.00000000	0.00000000
335.00000000	0.00000000
336.00000000	0.00000000
337.00000000	0.00000000
338.00000000	0.00000000
339.00000000	0.00067242
340.00000000	0.00000000
341.00000000	0.00000034
342.00000000	0.00002652
343.00000000	0.00000000
344.00000000	0.00000000
345.00000000	0.00000000
346.00000000	0.00000000
347.00000000	0.00000000
348.00000000	0.00000000
349.00000000	0.00000000
350.00000000	0.00000000
351.00000000	0.00000000
352.00000000	0.00041737
353.00000000	0.00000000
354.00000000	0.00000000
355.00000000	0.00000000
356.00000000	0.00000000
357.00000000	0.00028524
358.00000000	0.00000000
359.00000000	0.00000000
360.00000000	0.00000000
361.00000000	0.00000000
362.00000000	0.00000000
363.00000000	0.00000018
364.00000000	0.00000000
365.00000000	0.00000000
366.00000000	0.00000000
367.00000000	0.00000000
368.00000000	0.00000000
369.00000000	0.00000000
370.00000000	0.00000000
371.00000000	0.00000960
372.00000000	0.00000000
373.00000000	0.00021867
374.00000000	0.00054778
375.00000000	0.00000000
376.00000000	0.00000000
377.00000000	0.00019554
378.00000000	0.00000000
379.00000000	0.00000000
380.00000000	0.00047673
381.00000000	0.00002584
382.00000000	0.00000000
383.00000000	0.00000000
384.00000000	0.00041052
385.00000000	0.00000000
386.00000000	0.00000000
387.00000000	0.00000000
388.00000000	0.00000000
389.00000000	0.00000000
390.00000000	0.00018107
391.00000000	0.00033810
392.00000000	0.00019329
393.00000000	0.00000000
394.00000000	0.00054752
395.00000000	0.00000000
396.00000000	0.00000000
397.00000000	0.00113056
398.00000000	0.00005539
399.00000000	0.00000000
400.00000000	0.00000811
401.00000000	0.00000000
402.00000000	0.00011061
403.00000000	0.00006986
404.00000000	0.00001545
405.00000000	0.00001824
406.00000000	0.00016624
407.00000000	0.00007468
408.00000000	0.00066020
409.00000000	0.00009765
410.00000000	0.00005945
411.00000000	0.00071614
412.00000000	0.00135240
413.00000000	0.00142704
414.00000000	0.00161129
415.00000000	0.00134495
416.00000000	0.00251686
417.00000000	0.00399915
418.00000000	0.00296821
419.00000000	0.00371404
420.00000000	0.00381266
421.00000000	0.00462738
422.00000000	0.00519486
423.00000000	0.00533323
424.00000000	0.00673583
425.00000000	0.00709639
426.00000000	0.00867420
427.00000000	0.00852596
428.00000000	0.01050399
429.00000000	0.01138248
430.00000000	0.01280720
431.00000000	0.01472474
432.00000000	0.01657426
433.00000000	0.01778764
434.00000000	0.01919834
435.00000000	0.02160197
436.00000000	0.02434356
437.00000000	0.02645731
438.00000000	0.02853093
439.00000000	0.03291515
440.00000000	0.03409837
441.00000000	0.03851434
442.00000000	0.04289295
443.00000000	0.04712493
444.00000000	0.05201497
445.00000000	0.05863471
446.00000000	0.06570048
447.00000000	0.07523704
448.00000000	0.08605456
449.00000000	0.10020867
450.00000000	0.10985106
451.00000000	0.12392390
452.00000000	0.13978867
453.00000000	0.15080932
454.00000000	0.16097319
455.00000000	0.16826493
456.00000000	0.17193454
457.00000000	0.16989423
458.00000000	0.16819597
459.00000000	0.16305935
460.00000000	0.15332104
461.00000000	0.14458652
462.00000000	0.13695355
463.00000000	0.12897969
464.00000000	0.12609411
465.00000000	0.12031235
466.00000000	0.11952307
467.00000000	0.11979913
468.00000000	0.12267698
469.00000000	0.12052376
470.00000000	0.12104130
471.00000000	0.12251075
472.00000000	0.12079633
473.00000000	0.11885895
474.00000000	0.11676981
475.00000000	0.11421398
476.00000000	0.11022385
477.00000000	0.10809045
478.00000000	0.10402303
479.00000000	0.10318594
480.00000000	0.10324118
481.00000000	0.10442458
482.00000000	0.10442711
483.00000000	0.10615918
484.00000000	0.10901726
485.00000000	0.11146635
486.00000000	0.11604876
487.00000000	0.11755775
488.00000000	0.12105839
489.00000000	0.12443000
490.00000000	0.12612150
491.00000000	0.12720616
492.00000000	0.13139031
493.00000000	0.13429060
494.00000000	0.13743095
495.00000000	0.14076023
496.00000000	0.14314686
497.00000000	0.14961260
498.00000000	0.15325880
499.00000000	0.15583640
500.00000000	0.16025891
501.00000000	0.16462360
502.00000000	0.16970042
503.00000000	0.17476595
504.00000000	0.17833907
505.00000000	0.18273572
506.00000000	0.18615257
507.00000000	0.19072379
508.00000000	0.19533012
509.00000000	0.19854545
510.00000000	0.20371818
511.00000000	0.20851136
512.00000000	0.21198096
513.00000000	0.21580449
514.00000000	0.21957050
515.00000000	0.22395471
516.00000000	0.22782857
517.00000000	0.23005718
518.00000000	0.23383540
519.00000000	0.23613855
520.00000000	0.23965107
521.00000000	0.24296923
522.00000000	0.24790945
523.00000000	0.25209621
524.00000000	0.25800112
525.00000000	0.25871047
526.00000000	0.26486208
527.00000000	0.27001707
528.00000000	0.27330729
529.00000000	0.27867774
530.00000000	0.28257542
531.00000000	0.28509173
532.00000000	0.29054228
533.00000000	0.29301278
534.00000000	0.29654196
535.00000000	0.30257222
536.00000000	0.30780416
537.00000000	0.31161092
538.00000000	0.31731298
539.00000000	0.32183222
540.00000000	0.32777404
541.00000000	0.33500227
542.00000000	0.33879015
543.00000000	0.34464831
544.00000000	0.34858714
545.00000000	0.35647007
546.00000000	0.36094314
547.00000000	0.36648977
548.00000000	0.37376615
549.00000000	0.37672686
550.00000000	0.38547153
551.00000000	0.39365110
552.00000000	0.39966358
553.00000000	0.40817799
554.00000000	0.41434257
555.00000000	0.42091712
556.00000000	0.43105400
557.00000000	0.44131099
558.00000000	0.45160506
559.00000000	0.45911981
560.00000000	0.46798371
561.00000000	0.47817947
562.00000000	0.48493966
563.00000000	0.49235907
564.00000000	0.50063658
565.00000000	0.50967329
566.00000000	0.51999787
567.00000000	0.52918721
568.00000000	0.53683494
569.00000000	0.54829231
570.00000000	0.55658481
571.00000000	0.56430564
572.00000000	0.57755861
573.00000000	0.58624362
574.00000000	0.59439562
575.00000000	0.60518753
576.00000000	0.61280386
577.00000000	0.62808930
578.00000000	0.63937646
579.00000000	0.64923445
580.00000000	0.65883606
581.00000000	0.67016834
582.00000000	0.68236775
583.00000000	0.69655430
584.00000000	0.71341140
585.00000000	0.72730722
586.00000000	0.74075550
587.00000000	0.75191747
588.00000000	0.76086060
589.00000000	0.77202524
590.00000000	0.78372321
591.00000000	0.79547130
592.00000000	0.80437583
593.00000000	0.81827686
594.00000000	0.82712395
595.00000000	0.83905846
596.00000000	0.84762765
597.00000000	0.85425876
598.00000000	0.86722982
599.00000000	0.88122938
600.00000000	0.89123606
601.00000000	0.89845065
602.00000000	0.91188686
603.00000000	0.92214534
604.00000000	0.92714397
605.00000000	0.93112527
606.00000000	0.93518387
607.00000000	0.93931249
608.00000000	0.94231641
609.00000000	0.94653223
610.00000000	0.95124951
611.00000000	0.96007935
612.00000000	0.95871479
613.00000000	0.96553017
614.00000000	0.97084080
615.00000000	0.97757297
616.00000000	0.98151566
617.00000000	0.98691497
618.00000000	0.99713914
619.00000000	0.99749501
620.00000000	1.00000000
621.00000000	0.98752743
622.00000000	0.98807997
623.00000000	0.98916381
624.00000000	0.98368061
625.00000000	0.98113099
626.00000000	0.98085638
627.00000000	0.97571458
628.00000000	0.97442338
629.00000000	0.96896209
630.00000000	0.95873725
631.00000000	0.96020340
632.00000000	0.94752464
633.00000000	0.94020530
634.00000000	0.93622157
635.00000000	0.93015109
636.00000000	0.92048838
637.00000000	0.91129594
638.00000000	0.90423836
639.00000000	0.89104652
640.00000000	0.88689662
641.00000000	0.87763251
642.00000000	0.87039634
643.00000000	0.85434659
644.00000000	0.85008086
645.00000000	0.83372440
646.00000000	0.82665531
647.00000000	0.81849514
648.00000000	0.80835546
649.00000000	0.79984822
650.00000000	0.78464411
651.00000000	0.77055835
652.00000000	0.75954110
653.00000000	0.74383731
654.00000000	0.73737516
655.00000000	0.72250539
656.00000000	0.71025317
657.00000000	0.69641969
658.00000000	0.68497210
659.00000000	0.67261994
660.00000000	0.66217660
661.00000000	0.65145192
662.00000000	0.63834589
663.00000000	0.62771519
664.00000000	0.61128459
665.00000000	0.60417864
666.00000000	0.58925649
667.00000000	0.57954015
668.00000000	0.56606938
669.00000000	0.55777078
670.00000000	0.54746053
671.00000000	0.53868863
672.00000000	0.52511557
673.00000000	0.51415865
674.00000000	0.50147109
675.00000000	0.49207081
676.00000000	0.48363671
677.00000000	0.46881036
678.00000000	0.45984343
679.00000000	0.45139240
680.00000000	0.44175114
681.00000000	0.43020052
682.00000000	0.42035445
683.00000000	0.40954273
684.00000000	0.40140855
685.00000000	0.39253874
686.00000000	0.38043038
687.00000000	0.37151639
688.00000000	0.36320982
689.00000000	0.35194702
690.00000000	0.34415980
691.00000000	0.33674177
692.00000000	0.33140088
693.00000000	0.32128553
694.00000000	0.31229407
695.00000000	0.30603354
696.00000000	0.29803598
697.00000000	0.28715348
698.00000000	0.28015117
699.00000000	0.27596077
700.00000000	0.26916697
701.00000000	0.26424732
702.00000000	0.25678268
703.00000000	0.25259574
704.00000000	0.24361608
705.00000000	0.23609342
706.00000000	0.22716837
707.00000000	0.22060037
708.00000000	0.21759065
709.00000000	0.21010955
710.00000000	0.20623222
711.00000000	0.20034536
712.00000000	0.19336759
713.00000000	0.18762003
714.00000000	0.18361404
715.00000000	0.17701914
716.00000000	0.17482831
717.00000000	0.16908560
718.00000000	0.16300676
719.00000000	0.16038359
720.00000000	0.15596600
721.00000000	0.15114594
722.00000000	0.14642862
723.00000000	0.13967359
724.00000000	0.13939072
725.00000000	0.13536542
726.00000000	0.13136242
727.00000000	0.12682206
728.00000000	0.12197363
729.00000000	0.12000364
730.00000000	0.11507927
731.00000000	0.11255707
732.00000000	0.10876622
733.00000000	0.10508795
734.00000000	0.10344847
735.00000000	0.09917287
736.00000000	0.09456179
737.00000000	0.09314801
738.00000000	0.09175097
739.00000000	0.08833637
740.00000000	0.08650367
741.00000000	0.08348784
742.00000000	0.08086409
743.00000000	0.07763273
744.00000000	0.07428684
745.00000000	0.07181451
746.00000000	0.06792481
747.00000000	0.06684299
748.00000000	0.06466856
749.00000000	0.06370907
750.00000000	0.06115906
751.00000000	0.05817340
752.00000000	0.05691270
753.00000000	0.05504360
754.00000000	0.05409399
755.00000000	0.05264659
756.00000000	0.05018967
757.00000000	0.04822120
758.00000000	0.04853968
759.00000000	0.04742501
760.00000000	0.04486070
761.00000000	0.04475259
762.00000000	0.04373166
763.00000000	0.03998654
764.00000000	0.04004718
765.00000000	0.03891311
766.00000000	0.03742188
767.00000000	0.03708718
768.00000000	0.03403684
769.00000000	0.03301296
770.00000000	0.03332864
771.00000000	0.03175291
772.00000000	0.02931538
773.00000000	0.03048218
774.00000000	0.02888558
775.00000000	0.02796610
776.00000000	0.02699068
777.00000000	0.02897371
778.00000000	0.02630196
779.00000000	0.02521383
780.00000000	0.02463723
781.00000000	0.02250861
782.00000000	0.02243397
783.00000000	0.02169724
784.00000000	0.02217827
785.00000000	0.01946955
786.00000000	0.01951455
787.00000000	0.01985661
788.00000000	0.01706025
789.00000000	0.01787978
790.00000000	0.01669299
791.00000000	0.01749029
792.00000000	0.01419587
793.00000000	0.01413991
794.00000000	0.01608473
795.00000000	0.01326514
796.00000000	0.01448441
797.00000000	0.01426611
798.00000000	0.01297693
799.00000000	0.01132627
800.00000000	0.01007737
801.00000000	0.00971775
802.00000000	0.01052531
803.00000000	0.01031300
804.00000000	0.00978179
805.00000000	0.00994067
806.00000000	0.00977798
807.00000000	0.00645253
808.00000000	0.00947863
809.00000000	0.00897227
810.00000000	0.00623295
811.00000000	0.00843677
812.00000000	0.00726352
813.00000000	0.00758678
814.00000000	0.00906168
815.00000000	0.00633626
816.00000000	0.00743929
817.00000000	0.00601830
818.00000000	0.00440405
819.00000000	0.00338153
820.00000000	0.00555035
821.00000000	0.00500555
822.00000000	0.00201441
823.00000000	0.00484519
824.00000000	0.00249798
825.00000000	0.00217381
826.00000000	0.00145334
827.00000000	0.00187737
828.00000000	0.00046693
829.00000000	0.00140417
830.00000000	0.00422264
831.00000000	0.00581170
832.00000000	0.00425949
833.00000000	0.00297782
834.00000000	0.00260559
835.00000000	0.00537504
836.00000000	0.00188940
837.00000000	0.00238492
838.00000000	0.00188356
839.00000000	0.00010380
840.00000000	0.00057306
841.00000000	0.00067929
842.00000000	0.00384227
843.00000000	0.00087895
844.00000000	0.00000000
845.00000000	0.00000000
846.00000000	0.00071626
847.00000000	0.00000000
848.00000000	0.00161578
849.00000000	0.00286111
850.00000000	0.00138451
851.00000000	0.00232165
852.00000000	0.00080154
853.00000000	0.00000000
854.00000000	0.00071508
855.00000000	0.00000000
856.00000000	0.00000000
857.00000000	0.00092801
858.00000000	0.00000000
859.00000000	0.00012628
860.00000000	0.00000000
861.00000000	0.00000000
862.00000000	0.00006721
863.00000000	0.00038230
864.00000000	0.00000000
865.00000000	0.00000000
866.00000000	0.00000000
867.00000000	0.00000251
868.00000000	0.00002307
869.00000000	0.00019436
870.00000000	0.00419387
871.00000000	0.00016772
872.00000000	0.00003036
873.00000000	0.00007181
874.00000000	0.00000000
875.00000000	0.00000000
876.00000000	0.00000000
877.00000000	0.00000000
878.00000000	0.00000000
879.00000000	0.00000000
880.00000000	0.00000000
881.00000000	0.00000000
882.00000000	0.00000000
883.00000000	0.00000000
884.00000000	0.00000000
885.00000000	0.00000000
886.00000000	0.00062467
887.00000000	0.00000000
888.00000000	0.00000000
889.00000000	0.00000000
890.00000000	0.00000000
891.00000000	0.00000000
892.00000000	0.00000000
893.00000000	0.00000000
894.00000000	0.00000000
895.00000000	0.00000000
896.00000000	0.00000000
897.00000000	0.00000000
898.00000000	0.00000000
899.00000000	0.00000000
900.00000000	0.00000000
