#LICA Lamps Spectra Database
#Website 1: https://guaix.fis.ucm.es/lamps_spectra
#Website 2: http://carlostapia.es/lamparas/lamps.html
#Latest update: 2017/12/26
#Tester: Carlos Eugenio Tapia Ayuga
#Correct for Electrical Dark: Yes (JAZA2310)
#Correct for Detector Non-linearity: Yes (JAZA2310)
#Correct for Flux: Yes
#Start wavelength (nm): 300
#End wavelength (nm): 900
#Steps (nm):	1
#Locus: D65 sRGB Gamma 1 CIE1931
#XYZ coordinates: 0.7289	0.6370	0.1950
#xyY coordinates: 0.4670	0.4081	0.6370
#sRGB: 255	99	23
#CCT Lindbloom (K):	2584
#CCT McCamy (K):	2576
#CCT Hernández-Andrés (K):	2474
#Melatonin: 0.273
#Chlorophyll a: 0.178
#Chlorophyll b: 0.538
#Beta Carotene: 0.179
#Manufacturer: Unknown
#Luminance manufacturer: Unknown
#Other data: Riba-Roja de Turia streetlamps
#Begin Processed Spectral Data
W	S
300.00000000	0.00000000
301.00000000	0.00000000
302.00000000	0.00000000
303.00000000	0.00000000
304.00000000	0.00504524
305.00000000	0.00000000
306.00000000	0.00631429
307.00000000	0.00000000
308.00000000	0.00002295
309.00000000	0.00000000
310.00000000	0.00000000
311.00000000	0.00000000
312.00000000	0.00341893
313.00000000	0.00000000
314.00000000	0.00145611
315.00000000	0.00000000
316.00000000	0.00744907
317.00000000	0.00160501
318.00000000	0.00223714
319.00000000	0.00010425
320.00000000	0.00000000
321.00000000	0.00042278
322.00000000	0.00000000
323.00000000	0.00000000
324.00000000	0.00341386
325.00000000	0.00263123
326.00000000	0.00650274
327.00000000	0.00004583
328.00000000	0.00341987
329.00000000	0.00193714
330.00000000	0.00000000
331.00000000	0.00032600
332.00000000	0.00000000
333.00000000	0.00000000
334.00000000	0.00124022
335.00000000	0.00385693
336.00000000	0.00008888
337.00000000	0.00000000
338.00000000	0.00000000
339.00000000	0.00000000
340.00000000	0.00000000
341.00000000	0.00000000
342.00000000	0.00000000
343.00000000	0.00000000
344.00000000	0.00164262
345.00000000	0.00000835
346.00000000	0.00414130
347.00000000	0.00000000
348.00000000	0.00004159
349.00000000	0.00000000
350.00000000	0.00000000
351.00000000	0.00000000
352.00000000	0.00083831
353.00000000	0.00000000
354.00000000	0.00003955
355.00000000	0.00236204
356.00000000	0.00000843
357.00000000	0.00539359
358.00000000	0.00000000
359.00000000	0.00000000
360.00000000	0.00295335
361.00000000	0.00022211
362.00000000	0.00000000
363.00000000	0.00418625
364.00000000	0.00025215
365.00000000	0.00000000
366.00000000	0.00299357
367.00000000	0.00000000
368.00000000	0.00061907
369.00000000	0.00000000
370.00000000	0.00273098
371.00000000	0.00264209
372.00000000	0.00199148
373.00000000	0.00055580
374.00000000	0.00141833
375.00000000	0.00197057
376.00000000	0.00000000
377.00000000	0.00000000
378.00000000	0.00000000
379.00000000	0.00000000
380.00000000	0.00000000
381.00000000	0.00000000
382.00000000	0.00099140
383.00000000	0.00000282
384.00000000	0.00000153
385.00000000	0.00064522
386.00000000	0.00000000
387.00000000	0.00000000
388.00000000	0.00002672
389.00000000	0.00074464
390.00000000	0.00000000
391.00000000	0.00102556
392.00000000	0.00003760
393.00000000	0.00002833
394.00000000	0.00107334
395.00000000	0.00199799
396.00000000	0.00001906
397.00000000	0.00132147
398.00000000	0.00000000
399.00000000	0.00026846
400.00000000	0.00166571
401.00000000	0.00081259
402.00000000	0.00032606
403.00000000	0.00129248
404.00000000	0.00354350
405.00000000	0.00259675
406.00000000	0.00360772
407.00000000	0.00111300
408.00000000	0.00106853
409.00000000	0.00429087
410.00000000	0.00332558
411.00000000	0.00462727
412.00000000	0.00813670
413.00000000	0.00662525
414.00000000	0.00621302
415.00000000	0.00673859
416.00000000	0.00669676
417.00000000	0.01011925
418.00000000	0.01018856
419.00000000	0.01331847
420.00000000	0.01394467
421.00000000	0.01505941
422.00000000	0.01862821
423.00000000	0.02523691
424.00000000	0.02540413
425.00000000	0.02959604
426.00000000	0.02967366
427.00000000	0.03807067
428.00000000	0.03545157
429.00000000	0.04550845
430.00000000	0.04882262
431.00000000	0.05238894
432.00000000	0.06249601
433.00000000	0.06470021
434.00000000	0.07295880
435.00000000	0.08019988
436.00000000	0.09208347
437.00000000	0.09692865
438.00000000	0.11587183
439.00000000	0.12294038
440.00000000	0.13598900
441.00000000	0.15411786
442.00000000	0.17008201
443.00000000	0.19223165
444.00000000	0.21694803
445.00000000	0.23976668
446.00000000	0.26742612
447.00000000	0.29271864
448.00000000	0.31931451
449.00000000	0.34882501
450.00000000	0.36059710
451.00000000	0.36174035
452.00000000	0.35913453
453.00000000	0.36468941
454.00000000	0.34107857
455.00000000	0.33266214
456.00000000	0.30542725
457.00000000	0.29413027
458.00000000	0.27321377
459.00000000	0.26138025
460.00000000	0.25130139
461.00000000	0.23324101
462.00000000	0.22408082
463.00000000	0.21479375
464.00000000	0.21301531
465.00000000	0.20810885
466.00000000	0.19889328
467.00000000	0.19638787
468.00000000	0.19196200
469.00000000	0.18042346
470.00000000	0.17848939
471.00000000	0.16855342
472.00000000	0.16240111
473.00000000	0.15581350
474.00000000	0.15242143
475.00000000	0.14717522
476.00000000	0.14058764
477.00000000	0.14203418
478.00000000	0.13586422
479.00000000	0.13934815
480.00000000	0.14097272
481.00000000	0.14174257
482.00000000	0.14036075
483.00000000	0.14328389
484.00000000	0.14865683
485.00000000	0.15137469
486.00000000	0.15321822
487.00000000	0.15665720
488.00000000	0.16257519
489.00000000	0.16346362
490.00000000	0.16744728
491.00000000	0.17400950
492.00000000	0.18068815
493.00000000	0.18427190
494.00000000	0.19387360
495.00000000	0.19881898
496.00000000	0.20221540
497.00000000	0.21252099
498.00000000	0.22211439
499.00000000	0.23093810
500.00000000	0.23395383
501.00000000	0.24539841
502.00000000	0.24899682
503.00000000	0.25569830
504.00000000	0.26543995
505.00000000	0.27207429
506.00000000	0.27697458
507.00000000	0.28257258
508.00000000	0.28904330
509.00000000	0.29829604
510.00000000	0.30161103
511.00000000	0.30917162
512.00000000	0.31893942
513.00000000	0.32032429
514.00000000	0.32729528
515.00000000	0.33459616
516.00000000	0.33931828
517.00000000	0.33964705
518.00000000	0.34443413
519.00000000	0.34705252
520.00000000	0.35102808
521.00000000	0.35305079
522.00000000	0.36138436
523.00000000	0.36275427
524.00000000	0.37110853
525.00000000	0.37357322
526.00000000	0.38239120
527.00000000	0.38196328
528.00000000	0.38837384
529.00000000	0.39508890
530.00000000	0.39012962
531.00000000	0.39408496
532.00000000	0.40020432
533.00000000	0.40226547
534.00000000	0.40518630
535.00000000	0.41263375
536.00000000	0.41212103
537.00000000	0.41626753
538.00000000	0.42271257
539.00000000	0.42211129
540.00000000	0.43366051
541.00000000	0.44135533
542.00000000	0.43938035
543.00000000	0.44950501
544.00000000	0.45177380
545.00000000	0.45598667
546.00000000	0.46020670
547.00000000	0.46732335
548.00000000	0.47576157
549.00000000	0.48037713
550.00000000	0.48714009
551.00000000	0.49930053
552.00000000	0.50880647
553.00000000	0.51257779
554.00000000	0.51646811
555.00000000	0.52498868
556.00000000	0.53884658
557.00000000	0.55116293
558.00000000	0.56626295
559.00000000	0.56703512
560.00000000	0.58532752
561.00000000	0.59205391
562.00000000	0.60274546
563.00000000	0.60912656
564.00000000	0.61872874
565.00000000	0.62433466
566.00000000	0.63806840
567.00000000	0.64950672
568.00000000	0.65996229
569.00000000	0.67762816
570.00000000	0.67860089
571.00000000	0.69326131
572.00000000	0.70341002
573.00000000	0.71704177
574.00000000	0.72309035
575.00000000	0.73161311
576.00000000	0.74216769
577.00000000	0.75673795
578.00000000	0.76687142
579.00000000	0.77720171
580.00000000	0.78847711
581.00000000	0.80490453
582.00000000	0.81742757
583.00000000	0.82684249
584.00000000	0.84854237
585.00000000	0.85958643
586.00000000	0.87641219
587.00000000	0.88253396
588.00000000	0.89115723
589.00000000	0.90101008
590.00000000	0.90753284
591.00000000	0.92234731
592.00000000	0.93147159
593.00000000	0.93249213
594.00000000	0.94779337
595.00000000	0.94813430
596.00000000	0.95238421
597.00000000	0.95848619
598.00000000	0.96569944
599.00000000	0.97349628
600.00000000	0.98024849
601.00000000	0.98990981
602.00000000	0.99280441
603.00000000	0.99199060
604.00000000	1.00000000
605.00000000	0.99207816
606.00000000	0.99611775
607.00000000	0.99044112
608.00000000	0.99037051
609.00000000	0.99063332
610.00000000	0.98366967
611.00000000	0.98318074
612.00000000	0.98526377
613.00000000	0.97097758
614.00000000	0.97784810
615.00000000	0.97414869
616.00000000	0.97054036
617.00000000	0.96815723
618.00000000	0.97634379
619.00000000	0.97066256
620.00000000	0.96350941
621.00000000	0.94564939
622.00000000	0.93178119
623.00000000	0.93197267
624.00000000	0.91843714
625.00000000	0.91333899
626.00000000	0.90465817
627.00000000	0.89593967
628.00000000	0.88012607
629.00000000	0.87244464
630.00000000	0.85682468
631.00000000	0.84675433
632.00000000	0.83528384
633.00000000	0.81712362
634.00000000	0.80769154
635.00000000	0.79138273
636.00000000	0.77611240
637.00000000	0.77422174
638.00000000	0.76276400
639.00000000	0.74320942
640.00000000	0.73538762
641.00000000	0.70869981
642.00000000	0.70489289
643.00000000	0.68694194
644.00000000	0.67981481
645.00000000	0.66243776
646.00000000	0.65427381
647.00000000	0.63482111
648.00000000	0.62451761
649.00000000	0.61934525
650.00000000	0.59518950
651.00000000	0.58142190
652.00000000	0.58079349
653.00000000	0.55865385
654.00000000	0.55671757
655.00000000	0.54014557
656.00000000	0.52362261
657.00000000	0.51042585
658.00000000	0.50676708
659.00000000	0.49151078
660.00000000	0.48067062
661.00000000	0.46150571
662.00000000	0.46037263
663.00000000	0.43872629
664.00000000	0.42935955
665.00000000	0.42423132
666.00000000	0.41442250
667.00000000	0.40122386
668.00000000	0.38716105
669.00000000	0.37930266
670.00000000	0.36972007
671.00000000	0.35987401
672.00000000	0.35059254
673.00000000	0.33940931
674.00000000	0.32803428
675.00000000	0.32555082
676.00000000	0.31553765
677.00000000	0.30282133
678.00000000	0.30069673
679.00000000	0.29064505
680.00000000	0.28147302
681.00000000	0.27177974
682.00000000	0.26488511
683.00000000	0.25477904
684.00000000	0.24603401
685.00000000	0.24463638
686.00000000	0.23352987
687.00000000	0.23614429
688.00000000	0.22219159
689.00000000	0.21905199
690.00000000	0.20473080
691.00000000	0.20336288
692.00000000	0.19396191
693.00000000	0.19223789
694.00000000	0.18978743
695.00000000	0.17992235
696.00000000	0.17762427
697.00000000	0.17174730
698.00000000	0.16770597
699.00000000	0.15617437
700.00000000	0.15309329
701.00000000	0.15598290
702.00000000	0.14650783
703.00000000	0.14545885
704.00000000	0.14070973
705.00000000	0.12737943
706.00000000	0.12487661
707.00000000	0.12581226
708.00000000	0.12264253
709.00000000	0.12073200
710.00000000	0.11522803
711.00000000	0.10821038
712.00000000	0.10528982
713.00000000	0.10021372
714.00000000	0.09763487
715.00000000	0.09629894
716.00000000	0.08717784
717.00000000	0.08934865
718.00000000	0.09119970
719.00000000	0.08307230
720.00000000	0.08409059
721.00000000	0.07845958
722.00000000	0.07419592
723.00000000	0.07325177
724.00000000	0.07053880
725.00000000	0.07051393
726.00000000	0.06966195
727.00000000	0.06394817
728.00000000	0.06882238
729.00000000	0.06152478
730.00000000	0.05686970
731.00000000	0.05183575
732.00000000	0.06081046
733.00000000	0.05314931
734.00000000	0.05349220
735.00000000	0.05115456
736.00000000	0.05159245
737.00000000	0.04593671
738.00000000	0.04497457
739.00000000	0.04381375
740.00000000	0.04656830
741.00000000	0.03909446
742.00000000	0.03738539
743.00000000	0.03776288
744.00000000	0.03223358
745.00000000	0.03714927
746.00000000	0.03241024
747.00000000	0.03288724
748.00000000	0.03071901
749.00000000	0.03373414
750.00000000	0.03012147
751.00000000	0.02793396
752.00000000	0.02803317
753.00000000	0.02953124
754.00000000	0.02771026
755.00000000	0.02033746
756.00000000	0.02034170
757.00000000	0.02430213
758.00000000	0.02519633
759.00000000	0.02206506
760.00000000	0.01832986
761.00000000	0.02155908
762.00000000	0.02104826
763.00000000	0.01929788
764.00000000	0.01785044
765.00000000	0.01465705
766.00000000	0.01132607
767.00000000	0.01917271
768.00000000	0.01460357
769.00000000	0.01454555
770.00000000	0.01612080
771.00000000	0.01209736
772.00000000	0.00824328
773.00000000	0.01471884
774.00000000	0.01372376
775.00000000	0.01240377
776.00000000	0.01157858
777.00000000	0.00949220
778.00000000	0.00028803
779.00000000	0.01431446
780.00000000	0.00787243
781.00000000	0.00451120
782.00000000	0.00752525
783.00000000	0.00829606
784.00000000	0.00634136
785.00000000	0.00563301
786.00000000	0.00780311
787.00000000	0.01126296
788.00000000	0.01365531
789.00000000	0.00817983
790.00000000	0.00062555
791.00000000	0.00406744
792.00000000	0.00748779
793.00000000	0.00596692
794.00000000	0.00733103
795.00000000	0.00648031
796.00000000	0.00000000
797.00000000	0.00414184
798.00000000	0.00695029
799.00000000	0.00450186
800.00000000	0.01196283
801.00000000	0.00327857
802.00000000	0.00171560
803.00000000	0.00710998
804.00000000	0.00789355
805.00000000	0.01188341
806.00000000	0.00903093
807.00000000	0.00310384
808.00000000	0.00120481
809.00000000	0.00899904
810.00000000	0.00137982
811.00000000	0.00000000
812.00000000	0.00663475
813.00000000	0.00858159
814.00000000	0.01141764
815.00000000	0.00000000
816.00000000	0.00375508
817.00000000	0.00818050
818.00000000	0.00445141
819.00000000	0.00060432
820.00000000	0.00000379
821.00000000	0.00106806
822.00000000	0.00000000
823.00000000	0.00414787
824.00000000	0.00000000
825.00000000	0.00242007
826.00000000	0.00461099
827.00000000	0.00044243
828.00000000	0.00018693
829.00000000	0.00065827
830.00000000	0.00122555
831.00000000	0.00193092
832.00000000	0.00731989
833.00000000	0.00018151
834.00000000	0.00035612
835.00000000	0.00000000
836.00000000	0.00257130
837.00000000	0.00000000
838.00000000	0.00000000
839.00000000	0.00310751
840.00000000	0.00000000
841.00000000	0.00040390
842.00000000	0.00708410
843.00000000	0.00000000
844.00000000	0.00000000
845.00000000	0.00000000
846.00000000	0.00515039
847.00000000	0.00176193
848.00000000	0.01332239
849.00000000	0.00213238
850.00000000	0.00438754
851.00000000	0.00465512
852.00000000	0.00000000
853.00000000	0.00000000
854.00000000	0.00195651
855.00000000	0.00014664
856.00000000	0.00000000
857.00000000	0.00410099
858.00000000	0.00000000
859.00000000	0.00000000
860.00000000	0.00000000
861.00000000	0.00000000
862.00000000	0.00000354
863.00000000	0.01040600
864.00000000	0.00000000
865.00000000	0.00000000
866.00000000	0.00000000
867.00000000	0.00262377
868.00000000	0.00002951
869.00000000	0.00015629
870.00000000	0.00513855
871.00000000	0.00000000
872.00000000	0.00796294
873.00000000	0.00000000
874.00000000	0.00000000
875.00000000	0.00244149
876.00000000	0.00000000
877.00000000	0.00914167
878.00000000	0.00513151
879.00000000	0.00163317
880.00000000	0.00000000
881.00000000	0.00383988
882.00000000	0.01526861
883.00000000	0.00444756
884.00000000	0.00854174
885.00000000	0.00942589
886.00000000	0.00000000
887.00000000	0.00000000
888.00000000	0.00337262
889.00000000	0.00000000
890.00000000	0.01102888
891.00000000	0.00000000
892.00000000	0.00024319
893.00000000	0.00000000
894.00000000	0.00000000
895.00000000	0.00000000
896.00000000	0.00074032
897.00000000	0.00000000
898.00000000	0.00012377
899.00000000	0.01238456
900.00000000	0.00416834
