#LICA Lamps Spectra Database
#Website 1: https://guaix.fis.ucm.es/lamps_spectra
#Website 2: http://carlostapia.es/lamparas/lamps.html
#Latest update: 2017/12/15
#Tester: Carlos Eugenio Tapia Ayuga
#Correct for Electrical Dark: Yes (JAZA2310)
#Correct for Detector Non-linearity: Yes (JAZA2310)
#Correct for Flux: Yes
#Start wavelength (nm): 300
#End wavelength (nm): 900
#Steps (nm):	1
#Locus: D65 sRGB Gamma 1 CIE1931
#XYZ coordinates: 0.3282	0.3170	0.6542
#xyY coordinates: 0.2526	0.2440	0.3170
#sRGB: 64	77	165
#CCT Lindbloom (K):	25000
#CCT McCamy (K):	22558
#CCT Hernández-Andrés (K):	25000
#Melatonin: 1.368
#Chlorophyll a: 0.081
#Chlorophyll b: 1.774
#Beta Carotene: 0.082
#Manufacturer: Unknown
#Luminance manufacturer: Unknown
#Other data:
#Begin Processed Spectral Data
W	S
300.00000000	0.00000000
301.00000000	0.00000000
302.00000000	0.00000000
303.00000000	0.00000000
304.00000000	0.00326321
305.00000000	0.00000000
306.00000000	0.00000000
307.00000000	0.00191688
308.00000000	0.00983093
309.00000000	0.00000000
310.00000000	0.00000000
311.00000000	0.00356747
312.00000000	0.00000000
313.00000000	0.00000000
314.00000000	0.00000000
315.00000000	0.00000000
316.00000000	0.00000000
317.00000000	0.00000000
318.00000000	0.00000000
319.00000000	0.00082885
320.00000000	0.00000000
321.00000000	0.00000000
322.00000000	0.00000000
323.00000000	0.00631836
324.00000000	0.00000000
325.00000000	0.00000000
326.00000000	0.00259287
327.00000000	0.00000000
328.00000000	0.00000000
329.00000000	0.00000000
330.00000000	0.00000000
331.00000000	0.00000000
332.00000000	0.00000000
333.00000000	0.00000000
334.00000000	0.00005004
335.00000000	0.00000000
336.00000000	0.00132414
337.00000000	0.00000000
338.00000000	0.00000000
339.00000000	0.00131177
340.00000000	0.00287396
341.00000000	0.00360613
342.00000000	0.00000000
343.00000000	0.00086010
344.00000000	0.00000000
345.00000000	0.00000000
346.00000000	0.00000000
347.00000000	0.00020894
348.00000000	0.00062721
349.00000000	0.00000000
350.00000000	0.00000000
351.00000000	0.00000000
352.00000000	0.00174348
353.00000000	0.00257165
354.00000000	0.00082554
355.00000000	0.00013241
356.00000000	0.00000000
357.00000000	0.00000000
358.00000000	0.00000000
359.00000000	0.00000000
360.00000000	0.00000000
361.00000000	0.00000000
362.00000000	0.00000000
363.00000000	0.00000000
364.00000000	0.00000000
365.00000000	0.00000000
366.00000000	0.00000000
367.00000000	0.00000000
368.00000000	0.00120350
369.00000000	0.00000000
370.00000000	0.00002824
371.00000000	0.00000000
372.00000000	0.00231850
373.00000000	0.00177590
374.00000000	0.00000000
375.00000000	0.00000000
376.00000000	0.00120156
377.00000000	0.00179576
378.00000000	0.00074064
379.00000000	0.00000000
380.00000000	0.00092154
381.00000000	0.00000000
382.00000000	0.00000000
383.00000000	0.00000000
384.00000000	0.00000000
385.00000000	0.00091881
386.00000000	0.00101014
387.00000000	0.00039578
388.00000000	0.00366308
389.00000000	0.00231558
390.00000000	0.00236105
391.00000000	0.00525419
392.00000000	0.00469951
393.00000000	0.00444267
394.00000000	0.00691296
395.00000000	0.00703934
396.00000000	0.00987338
397.00000000	0.01056008
398.00000000	0.01392572
399.00000000	0.01629436
400.00000000	0.02003290
401.00000000	0.02274047
402.00000000	0.02725908
403.00000000	0.03126371
404.00000000	0.03780718
405.00000000	0.04039051
406.00000000	0.04774715
407.00000000	0.05455155
408.00000000	0.06275165
409.00000000	0.06827660
410.00000000	0.08002509
411.00000000	0.09146717
412.00000000	0.10249070
413.00000000	0.11299966
414.00000000	0.12719040
415.00000000	0.14190027
416.00000000	0.15573350
417.00000000	0.17479004
418.00000000	0.19095004
419.00000000	0.20860777
420.00000000	0.23089025
421.00000000	0.24618995
422.00000000	0.26865001
423.00000000	0.29777689
424.00000000	0.32319124
425.00000000	0.34020229
426.00000000	0.37251274
427.00000000	0.39648884
428.00000000	0.42904719
429.00000000	0.46003030
430.00000000	0.48314162
431.00000000	0.51483051
432.00000000	0.54945246
433.00000000	0.57595921
434.00000000	0.60945234
435.00000000	0.64780913
436.00000000	0.67096767
437.00000000	0.70838686
438.00000000	0.73654781
439.00000000	0.76999731
440.00000000	0.79262971
441.00000000	0.82452443
442.00000000	0.84754646
443.00000000	0.88148162
444.00000000	0.89330011
445.00000000	0.92223061
446.00000000	0.93100944
447.00000000	0.95148865
448.00000000	0.96728841
449.00000000	0.99585770
450.00000000	0.99746019
451.00000000	1.00000000
452.00000000	0.99776932
453.00000000	0.98948929
454.00000000	0.97380968
455.00000000	0.95637266
456.00000000	0.94112612
457.00000000	0.89978506
458.00000000	0.88735046
459.00000000	0.84916522
460.00000000	0.82094498
461.00000000	0.78297579
462.00000000	0.75987732
463.00000000	0.71399506
464.00000000	0.68535060
465.00000000	0.65852742
466.00000000	0.61955403
467.00000000	0.58822450
468.00000000	0.56384786
469.00000000	0.53065714
470.00000000	0.50373280
471.00000000	0.48150874
472.00000000	0.45220261
473.00000000	0.43197586
474.00000000	0.40772724
475.00000000	0.39002112
476.00000000	0.37162158
477.00000000	0.35597877
478.00000000	0.33548914
479.00000000	0.32046965
480.00000000	0.30847970
481.00000000	0.29977059
482.00000000	0.29193064
483.00000000	0.28214665
484.00000000	0.26831021
485.00000000	0.26571315
486.00000000	0.25894848
487.00000000	0.25252214
488.00000000	0.24804607
489.00000000	0.24101491
490.00000000	0.23835613
491.00000000	0.24062624
492.00000000	0.23616537
493.00000000	0.23515776
494.00000000	0.23382593
495.00000000	0.23776309
496.00000000	0.23754081
497.00000000	0.23939119
498.00000000	0.24216584
499.00000000	0.24345911
500.00000000	0.24594566
501.00000000	0.24708053
502.00000000	0.25135368
503.00000000	0.25627869
504.00000000	0.25835223
505.00000000	0.26028994
506.00000000	0.26829327
507.00000000	0.27133859
508.00000000	0.27609661
509.00000000	0.28105686
510.00000000	0.28373239
511.00000000	0.29139865
512.00000000	0.29741256
513.00000000	0.29426881
514.00000000	0.30224235
515.00000000	0.30917634
516.00000000	0.31071671
517.00000000	0.31325156
518.00000000	0.31322780
519.00000000	0.31873172
520.00000000	0.32020921
521.00000000	0.32664421
522.00000000	0.32623986
523.00000000	0.32814321
524.00000000	0.33609591
525.00000000	0.33589534
526.00000000	0.33445564
527.00000000	0.34273518
528.00000000	0.34333951
529.00000000	0.34639466
530.00000000	0.34452276
531.00000000	0.34666776
532.00000000	0.34581126
533.00000000	0.34597328
534.00000000	0.34613821
535.00000000	0.34732117
536.00000000	0.35079663
537.00000000	0.34838262
538.00000000	0.35057912
539.00000000	0.35408847
540.00000000	0.34890828
541.00000000	0.35016329
542.00000000	0.35121773
543.00000000	0.35333965
544.00000000	0.34914380
545.00000000	0.35142287
546.00000000	0.34697718
547.00000000	0.34874228
548.00000000	0.34581652
549.00000000	0.34915646
550.00000000	0.34438840
551.00000000	0.34313534
552.00000000	0.34321313
553.00000000	0.34548305
554.00000000	0.34294091
555.00000000	0.34145379
556.00000000	0.34193788
557.00000000	0.34176350
558.00000000	0.34145788
559.00000000	0.33860320
560.00000000	0.34011281
561.00000000	0.34175386
562.00000000	0.33449293
563.00000000	0.33387068
564.00000000	0.32960424
565.00000000	0.32918246
566.00000000	0.32977978
567.00000000	0.32632700
568.00000000	0.32148086
569.00000000	0.31980973
570.00000000	0.31603458
571.00000000	0.31546909
572.00000000	0.31126234
573.00000000	0.31120207
574.00000000	0.30622527
575.00000000	0.30350027
576.00000000	0.30161971
577.00000000	0.29822759
578.00000000	0.29490615
579.00000000	0.29393953
580.00000000	0.29298411
581.00000000	0.29112360
582.00000000	0.28833230
583.00000000	0.28421395
584.00000000	0.28403889
585.00000000	0.28076156
586.00000000	0.27564991
587.00000000	0.27300992
588.00000000	0.26954370
589.00000000	0.26854885
590.00000000	0.25998948
591.00000000	0.26175107
592.00000000	0.25872260
593.00000000	0.25612116
594.00000000	0.25387996
595.00000000	0.24630863
596.00000000	0.24855694
597.00000000	0.23850509
598.00000000	0.24187034
599.00000000	0.23868862
600.00000000	0.23844853
601.00000000	0.23184060
602.00000000	0.23022253
603.00000000	0.22576847
604.00000000	0.22336565
605.00000000	0.21687340
606.00000000	0.21615457
607.00000000	0.21140842
608.00000000	0.20892469
609.00000000	0.20514789
610.00000000	0.20194504
611.00000000	0.19841855
612.00000000	0.19750519
613.00000000	0.19367757
614.00000000	0.19494387
615.00000000	0.18906870
616.00000000	0.18811094
617.00000000	0.18779665
618.00000000	0.18611120
619.00000000	0.18328953
620.00000000	0.17894247
621.00000000	0.17528046
622.00000000	0.17211811
623.00000000	0.16864089
624.00000000	0.16412287
625.00000000	0.16431311
626.00000000	0.16172618
627.00000000	0.15891191
628.00000000	0.15475334
629.00000000	0.15329913
630.00000000	0.14975016
631.00000000	0.14738521
632.00000000	0.14419677
633.00000000	0.13933165
634.00000000	0.13700886
635.00000000	0.13629908
636.00000000	0.13526519
637.00000000	0.13049577
638.00000000	0.12371318
639.00000000	0.12645482
640.00000000	0.12256430
641.00000000	0.12139886
642.00000000	0.11831460
643.00000000	0.11681443
644.00000000	0.11432097
645.00000000	0.11054465
646.00000000	0.10869651
647.00000000	0.10639125
648.00000000	0.10464106
649.00000000	0.10206795
650.00000000	0.10083300
651.00000000	0.09869861
652.00000000	0.09541047
653.00000000	0.09373787
654.00000000	0.09188496
655.00000000	0.09067873
656.00000000	0.08812948
657.00000000	0.08647519
658.00000000	0.08352188
659.00000000	0.08216074
660.00000000	0.07932077
661.00000000	0.08036985
662.00000000	0.07817617
663.00000000	0.07384440
664.00000000	0.07289735
665.00000000	0.07443383
666.00000000	0.07118989
667.00000000	0.06944466
668.00000000	0.06807214
669.00000000	0.06569765
670.00000000	0.06177782
671.00000000	0.06225325
672.00000000	0.06217205
673.00000000	0.06121020
674.00000000	0.06085482
675.00000000	0.05927920
676.00000000	0.05696995
677.00000000	0.05662723
678.00000000	0.05312713
679.00000000	0.05494850
680.00000000	0.05382405
681.00000000	0.05156368
682.00000000	0.04757336
683.00000000	0.04843044
684.00000000	0.04719325
685.00000000	0.04565209
686.00000000	0.04224644
687.00000000	0.04452269
688.00000000	0.04376024
689.00000000	0.03989142
690.00000000	0.04173236
691.00000000	0.04140834
692.00000000	0.03799635
693.00000000	0.03803569
694.00000000	0.03586323
695.00000000	0.03481697
696.00000000	0.03384013
697.00000000	0.03202762
698.00000000	0.03374549
699.00000000	0.03226110
700.00000000	0.03105769
701.00000000	0.03301157
702.00000000	0.02859373
703.00000000	0.02888426
704.00000000	0.02836376
705.00000000	0.02853872
706.00000000	0.02716639
707.00000000	0.02520521
708.00000000	0.02646703
709.00000000	0.02549106
710.00000000	0.02330050
711.00000000	0.02286665
712.00000000	0.02420870
713.00000000	0.02147670
714.00000000	0.02227488
715.00000000	0.02123494
716.00000000	0.02074375
717.00000000	0.02153005
718.00000000	0.02005062
719.00000000	0.01747683
720.00000000	0.01960090
721.00000000	0.01942643
722.00000000	0.01737528
723.00000000	0.01717189
724.00000000	0.01913531
725.00000000	0.01781712
726.00000000	0.01267821
727.00000000	0.01684875
728.00000000	0.01526290
729.00000000	0.01541157
730.00000000	0.01563005
731.00000000	0.01196035
732.00000000	0.01651177
733.00000000	0.01380528
734.00000000	0.01374413
735.00000000	0.01382796
736.00000000	0.01037966
737.00000000	0.01390069
738.00000000	0.01220911
739.00000000	0.01064926
740.00000000	0.01278803
741.00000000	0.00982752
742.00000000	0.00950729
743.00000000	0.00898251
744.00000000	0.00926749
745.00000000	0.00887258
746.00000000	0.01056154
747.00000000	0.00881251
748.00000000	0.00939464
749.00000000	0.00841322
750.00000000	0.00760930
751.00000000	0.00703369
752.00000000	0.00855304
753.00000000	0.00794530
754.00000000	0.00854982
755.00000000	0.00801890
756.00000000	0.00605130
757.00000000	0.00634514
758.00000000	0.00514310
759.00000000	0.00692104
760.00000000	0.00617690
761.00000000	0.00161545
762.00000000	0.00752041
763.00000000	0.00776654
764.00000000	0.00553810
765.00000000	0.00445542
766.00000000	0.00225901
767.00000000	0.00223331
768.00000000	0.00465959
769.00000000	0.00373581
770.00000000	0.00764844
771.00000000	0.00183286
772.00000000	0.00396783
773.00000000	0.00181329
774.00000000	0.00113223
775.00000000	0.00532186
776.00000000	0.00245734
777.00000000	0.00752109
778.00000000	0.00900626
779.00000000	0.00056110
780.00000000	0.00148498
781.00000000	0.00588880
782.00000000	0.00311074
783.00000000	0.00168964
784.00000000	0.00237624
785.00000000	0.00098541
786.00000000	0.00304045
787.00000000	0.00114051
788.00000000	0.00032188
789.00000000	0.00214023
790.00000000	0.00343350
791.00000000	0.00355121
792.00000000	0.00039237
793.00000000	0.00074200
794.00000000	0.00231928
795.00000000	0.00064873
796.00000000	0.00282051
797.00000000	0.00000000
798.00000000	0.00127253
799.00000000	0.00286636
800.00000000	0.00000000
801.00000000	0.00046793
802.00000000	0.00445766
803.00000000	0.00211511
804.00000000	0.00000000
805.00000000	0.00055156
806.00000000	0.00246786
807.00000000	0.00000000
808.00000000	0.00117186
809.00000000	0.00000000
810.00000000	0.00259998
811.00000000	0.00000000
812.00000000	0.00000000
813.00000000	0.00295467
814.00000000	0.00338073
815.00000000	0.00000000
816.00000000	0.00000000
817.00000000	0.00000000
818.00000000	0.00120730
819.00000000	0.00195047
820.00000000	0.00000000
821.00000000	0.00037913
822.00000000	0.00286461
823.00000000	0.00000000
824.00000000	0.00000000
825.00000000	0.00075963
826.00000000	0.00000000
827.00000000	0.00000000
828.00000000	0.00000000
829.00000000	0.00435095
830.00000000	0.00000000
831.00000000	0.00033240
832.00000000	0.00113564
833.00000000	0.00000000
834.00000000	0.00000000
835.00000000	0.00000000
836.00000000	0.00000000
837.00000000	0.00489025
838.00000000	0.00000000
839.00000000	0.00000000
840.00000000	0.00000000
841.00000000	0.00134750
842.00000000	0.00047620
843.00000000	0.00000000
844.00000000	0.00297531
845.00000000	0.00000000
846.00000000	0.00472648
847.00000000	0.00000000
848.00000000	0.00161048
849.00000000	0.00000000
850.00000000	0.00115940
851.00000000	0.00000000
852.00000000	0.00000000
853.00000000	0.00000000
854.00000000	0.00190121
855.00000000	0.00000000
856.00000000	0.00006504
857.00000000	0.00000000
858.00000000	0.00000000
859.00000000	0.00000000
860.00000000	0.00000000
861.00000000	0.00000000
862.00000000	0.00376999
863.00000000	0.00000000
864.00000000	0.00365919
865.00000000	0.00000000
866.00000000	0.00000000
867.00000000	0.00000000
868.00000000	0.00187463
869.00000000	0.00000000
870.00000000	0.00000000
871.00000000	0.00284154
872.00000000	0.00000000
873.00000000	0.00000000
874.00000000	0.00000000
875.00000000	0.00215961
876.00000000	0.00000000
877.00000000	0.00033191
878.00000000	0.00138684
879.00000000	0.00000000
880.00000000	0.00000000
881.00000000	0.00000000
882.00000000	0.00360116
883.00000000	0.00000000
884.00000000	0.00000000
885.00000000	0.00000000
886.00000000	0.00000000
887.00000000	0.00115920
888.00000000	0.00000000
889.00000000	0.00000000
890.00000000	0.00000000
891.00000000	0.00000000
892.00000000	0.00000000
893.00000000	0.00000000
894.00000000	0.00000000
895.00000000	0.00000000
896.00000000	0.00000000
897.00000000	0.00000000
898.00000000	0.00000000
899.00000000	0.00107128
900.00000000	0.00000000
