#LICA Lamps Spectra Database
#Website 1: https://guaix.fis.ucm.es/lamps_spectra
#Website 2: http://carlostapia.es/lamparas/lamps.html
#Latest update: 2017/12/15
#Tester: Carlos Eugenio Tapia Ayuga
#Correct for Electrical Dark: Yes (JAZA2310)
#Correct for Detector Non-linearity: Yes (JAZA2310)
#Correct for Flux: Yes
#Start wavelength (nm): 300
#End wavelength (nm): 900
#Steps (nm):	1
#Locus: D65 sRGB Gamma 1 CIE1931
#XYZ coordinates: 0.7904	0.7027	0.3563
#xyY coordinates: 0.4274	0.3799	0.7027
#sRGB: 255	111	54
#CCT Lindbloom (K):	2961
#CCT McCamy (K):	2966
#CCT Hernández-Andrés (K):	2934
#Melatonin: 0.379
#Chlorophyll a: 0.220
#Chlorophyll b: 0.691
#Beta Carotene: 0.221
#Manufacturer: Philips
#Luminance manufacturer: Unknown
#Other data: Madrid streetlamp at Travesía Andrés Mellado
#Begin Processed Spectral Data
W	S
300.00000000	0.00050350
301.00000000	0.00000000
302.00000000	0.00000000
303.00000000	0.00000000
304.00000000	0.00425643
305.00000000	0.04959349
306.00000000	0.00000000
307.00000000	0.01206066
308.00000000	0.00257775
309.00000000	0.00000000
310.00000000	0.00354853
311.00000000	0.00925524
312.00000000	0.00000000
313.00000000	0.00000000
314.00000000	0.01016696
315.00000000	0.00471664
316.00000000	0.02860026
317.00000000	0.00000000
318.00000000	0.00000000
319.00000000	0.02502067
320.00000000	0.00000000
321.00000000	0.00000000
322.00000000	0.00476038
323.00000000	0.00000000
324.00000000	0.02224249
325.00000000	0.00171182
326.00000000	0.00774767
327.00000000	0.00000000
328.00000000	0.00000000
329.00000000	0.00421903
330.00000000	0.00000000
331.00000000	0.00000000
332.00000000	0.00824720
333.00000000	0.00000000
334.00000000	0.01227184
335.00000000	0.00000000
336.00000000	0.02324493
337.00000000	0.00000000
338.00000000	0.00000000
339.00000000	0.01673680
340.00000000	0.01251851
341.00000000	0.00033429
342.00000000	0.00000000
343.00000000	0.00000000
344.00000000	0.00000000
345.00000000	0.01492896
346.00000000	0.00409680
347.00000000	0.00000000
348.00000000	0.00000000
349.00000000	0.00000000
350.00000000	0.00554560
351.00000000	0.00000000
352.00000000	0.00000000
353.00000000	0.00000000
354.00000000	0.00000000
355.00000000	0.01023426
356.00000000	0.00055298
357.00000000	0.00086548
358.00000000	0.00751897
359.00000000	0.00000000
360.00000000	0.00296535
361.00000000	0.01030907
362.00000000	0.00185217
363.00000000	0.00000000
364.00000000	0.00000000
365.00000000	0.00000000
366.00000000	0.00412286
367.00000000	0.00000000
368.00000000	0.00171035
369.00000000	0.00000000
370.00000000	0.00884142
371.00000000	0.00756109
372.00000000	0.00494417
373.00000000	0.00000000
374.00000000	0.00230398
375.00000000	0.00000000
376.00000000	0.00000000
377.00000000	0.00268569
378.00000000	0.00200032
379.00000000	0.00000000
380.00000000	0.00158429
381.00000000	0.00000000
382.00000000	0.00000000
383.00000000	0.00000000
384.00000000	0.00885482
385.00000000	0.00174363
386.00000000	0.00000000
387.00000000	0.00006082
388.00000000	0.00388223
389.00000000	0.00066240
390.00000000	0.00000000
391.00000000	0.00043429
392.00000000	0.00104338
393.00000000	0.00000000
394.00000000	0.00227511
395.00000000	0.00333838
396.00000000	0.00000000
397.00000000	0.00408737
398.00000000	0.00000000
399.00000000	0.00000000
400.00000000	0.00121377
401.00000000	0.00262782
402.00000000	0.00690089
403.00000000	0.00000000
404.00000000	0.00817533
405.00000000	0.00155204
406.00000000	0.00350803
407.00000000	0.01014148
408.00000000	0.01032247
409.00000000	0.01404742
410.00000000	0.00953769
411.00000000	0.01136247
412.00000000	0.01103053
413.00000000	0.01465843
414.00000000	0.01733720
415.00000000	0.02291152
416.00000000	0.03095387
417.00000000	0.03272430
418.00000000	0.03416648
419.00000000	0.04759671
420.00000000	0.05516752
421.00000000	0.06136345
422.00000000	0.08780700
423.00000000	0.08739156
424.00000000	0.10199889
425.00000000	0.11481148
426.00000000	0.13337998
427.00000000	0.16098678
428.00000000	0.16904018
429.00000000	0.19883963
430.00000000	0.22354588
431.00000000	0.24246251
432.00000000	0.25798451
433.00000000	0.28931936
434.00000000	0.30777578
435.00000000	0.33726377
436.00000000	0.35950361
437.00000000	0.38089107
438.00000000	0.40275067
439.00000000	0.43542431
440.00000000	0.46292126
441.00000000	0.49054868
442.00000000	0.51897208
443.00000000	0.55522164
444.00000000	0.57785306
445.00000000	0.61824271
446.00000000	0.64806307
447.00000000	0.67464373
448.00000000	0.70391405
449.00000000	0.72678213
450.00000000	0.71572038
451.00000000	0.72100797
452.00000000	0.70165470
453.00000000	0.66203775
454.00000000	0.62108141
455.00000000	0.58724157
456.00000000	0.53919967
457.00000000	0.48162229
458.00000000	0.44370052
459.00000000	0.39383738
460.00000000	0.35724499
461.00000000	0.32393383
462.00000000	0.30004240
463.00000000	0.27518093
464.00000000	0.25366564
465.00000000	0.24337925
466.00000000	0.22285844
467.00000000	0.21720372
468.00000000	0.20971582
469.00000000	0.18989071
470.00000000	0.17850011
471.00000000	0.16775381
472.00000000	0.15487642
473.00000000	0.14818243
474.00000000	0.14021622
475.00000000	0.12766443
476.00000000	0.12431486
477.00000000	0.12305780
478.00000000	0.11706613
479.00000000	0.11054018
480.00000000	0.10672863
481.00000000	0.10560190
482.00000000	0.10298454
483.00000000	0.10547687
484.00000000	0.10730710
485.00000000	0.10380835
486.00000000	0.11071528
487.00000000	0.10840305
488.00000000	0.10916280
489.00000000	0.11160638
490.00000000	0.11516271
491.00000000	0.12008302
492.00000000	0.12502660
493.00000000	0.13065997
494.00000000	0.13526705
495.00000000	0.14425617
496.00000000	0.14981959
497.00000000	0.15462695
498.00000000	0.16529299
499.00000000	0.17448122
500.00000000	0.18179505
501.00000000	0.19330743
502.00000000	0.20425785
503.00000000	0.21327539
504.00000000	0.22093913
505.00000000	0.23306222
506.00000000	0.24118100
507.00000000	0.25467426
508.00000000	0.26399062
509.00000000	0.27813244
510.00000000	0.28919728
511.00000000	0.29515625
512.00000000	0.30736535
513.00000000	0.31774497
514.00000000	0.32840792
515.00000000	0.33909988
516.00000000	0.35263718
517.00000000	0.36036659
518.00000000	0.37278260
519.00000000	0.37701502
520.00000000	0.38634802
521.00000000	0.39362223
522.00000000	0.40696145
523.00000000	0.41632728
524.00000000	0.42710495
525.00000000	0.43296320
526.00000000	0.44202036
527.00000000	0.45032676
528.00000000	0.45934755
529.00000000	0.46904723
530.00000000	0.47527291
531.00000000	0.47932347
532.00000000	0.49056208
533.00000000	0.49677907
534.00000000	0.50012937
535.00000000	0.50648995
536.00000000	0.51374796
537.00000000	0.52369137
538.00000000	0.52807563
539.00000000	0.54253510
540.00000000	0.54393619
541.00000000	0.55301559
542.00000000	0.56193653
543.00000000	0.56882093
544.00000000	0.57770579
545.00000000	0.58356153
546.00000000	0.59457145
547.00000000	0.59431903
548.00000000	0.60898571
549.00000000	0.61630115
550.00000000	0.62526583
551.00000000	0.62831292
552.00000000	0.62892628
553.00000000	0.65147611
554.00000000	0.66155310
555.00000000	0.67098255
556.00000000	0.67873154
557.00000000	0.68152342
558.00000000	0.70171581
559.00000000	0.70416529
560.00000000	0.71400385
561.00000000	0.72956296
562.00000000	0.73125725
563.00000000	0.74354426
564.00000000	0.75966047
565.00000000	0.76596199
566.00000000	0.77921668
567.00000000	0.79126600
568.00000000	0.79415934
569.00000000	0.80516571
570.00000000	0.81283077
571.00000000	0.81998835
572.00000000	0.82504031
573.00000000	0.83486355
574.00000000	0.84180730
575.00000000	0.85156000
576.00000000	0.86548652
577.00000000	0.86752851
578.00000000	0.87934146
579.00000000	0.88184602
580.00000000	0.88875736
581.00000000	0.90205682
582.00000000	0.90846599
583.00000000	0.91338468
584.00000000	0.91480816
585.00000000	0.93790567
586.00000000	0.94689715
587.00000000	0.95583385
588.00000000	0.95179066
589.00000000	0.95566950
590.00000000	0.96217145
591.00000000	0.96705421
592.00000000	0.97544587
593.00000000	0.97706021
594.00000000	0.97567546
595.00000000	0.97694652
596.00000000	0.97970142
597.00000000	0.98414223
598.00000000	0.99134591
599.00000000	0.98960124
600.00000000	0.99509471
601.00000000	0.99356285
602.00000000	0.99237927
603.00000000	1.00000000
604.00000000	0.99273713
605.00000000	0.98107615
606.00000000	0.97647202
607.00000000	0.97058550
608.00000000	0.96847061
609.00000000	0.96425998
610.00000000	0.95343150
611.00000000	0.95130321
612.00000000	0.94041715
613.00000000	0.93329624
614.00000000	0.93067711
615.00000000	0.93832096
616.00000000	0.92932197
617.00000000	0.92650830
618.00000000	0.92903907
619.00000000	0.90926005
620.00000000	0.90624802
621.00000000	0.89415953
622.00000000	0.88274537
623.00000000	0.87927755
624.00000000	0.86301333
625.00000000	0.86344172
626.00000000	0.83891131
627.00000000	0.83599426
628.00000000	0.82835748
629.00000000	0.81563324
630.00000000	0.79417392
631.00000000	0.78665333
632.00000000	0.77089983
633.00000000	0.75820549
634.00000000	0.75021129
635.00000000	0.74021162
636.00000000	0.72503438
637.00000000	0.70617002
638.00000000	0.70508570
639.00000000	0.69061725
640.00000000	0.67326606
641.00000000	0.67400165
642.00000000	0.66210299
643.00000000	0.64181766
644.00000000	0.62463318
645.00000000	0.61544524
646.00000000	0.60431722
647.00000000	0.59397310
648.00000000	0.58388449
649.00000000	0.58100809
650.00000000	0.56289656
651.00000000	0.55966716
652.00000000	0.54380660
653.00000000	0.53241276
654.00000000	0.51518203
655.00000000	0.50948446
656.00000000	0.49043219
657.00000000	0.48142407
658.00000000	0.47635959
659.00000000	0.46527619
660.00000000	0.47024789
661.00000000	0.44759041
662.00000000	0.44325430
663.00000000	0.43516910
664.00000000	0.41191018
665.00000000	0.41356471
666.00000000	0.39983877
667.00000000	0.39421615
668.00000000	0.37566813
669.00000000	0.37099007
670.00000000	0.36455719
671.00000000	0.36203953
672.00000000	0.35670275
673.00000000	0.33599375
674.00000000	0.33772825
675.00000000	0.33381038
676.00000000	0.31864933
677.00000000	0.31631855
678.00000000	0.30984399
679.00000000	0.29744595
680.00000000	0.28632087
681.00000000	0.27819826
682.00000000	0.28436120
683.00000000	0.27354406
684.00000000	0.26289864
685.00000000	0.26153068
686.00000000	0.24755085
687.00000000	0.24582107
688.00000000	0.23581654
689.00000000	0.22794826
690.00000000	0.22385971
691.00000000	0.21874515
692.00000000	0.21989339
693.00000000	0.21333798
694.00000000	0.20033365
695.00000000	0.19991806
696.00000000	0.19194640
697.00000000	0.18706747
698.00000000	0.18125738
699.00000000	0.18970074
700.00000000	0.17977338
701.00000000	0.17867315
702.00000000	0.17278369
703.00000000	0.17429198
704.00000000	0.15740689
705.00000000	0.15509805
706.00000000	0.15885408
707.00000000	0.14325756
708.00000000	0.14659726
709.00000000	0.15001428
710.00000000	0.14721622
711.00000000	0.13384298
712.00000000	0.12560329
713.00000000	0.13275321
714.00000000	0.12217288
715.00000000	0.12195257
716.00000000	0.12178940
717.00000000	0.11978113
718.00000000	0.11344426
719.00000000	0.11668618
720.00000000	0.11202977
721.00000000	0.10200846
722.00000000	0.10415413
723.00000000	0.10325065
724.00000000	0.08756622
725.00000000	0.09344420
726.00000000	0.09606833
727.00000000	0.08661134
728.00000000	0.08990362
729.00000000	0.09608365
730.00000000	0.08215728
731.00000000	0.08290716
732.00000000	0.07793810
733.00000000	0.06942023
734.00000000	0.07009986
735.00000000	0.06386609
736.00000000	0.05836555
737.00000000	0.06539751
738.00000000	0.06594372
739.00000000	0.06272963
740.00000000	0.07029234
741.00000000	0.07075579
742.00000000	0.06431584
743.00000000	0.05535690
744.00000000	0.05490155
745.00000000	0.05392798
746.00000000	0.05047179
747.00000000	0.05489198
748.00000000	0.04636586
749.00000000	0.04759907
750.00000000	0.04564087
751.00000000	0.03596092
752.00000000	0.04610491
753.00000000	0.04629282
754.00000000	0.04072086
755.00000000	0.03733727
756.00000000	0.03738057
757.00000000	0.04847015
758.00000000	0.03180153
759.00000000	0.02871498
760.00000000	0.03630184
761.00000000	0.02707282
762.00000000	0.02903764
763.00000000	0.03459591
764.00000000	0.02916680
765.00000000	0.03887311
766.00000000	0.02748428
767.00000000	0.03341027
768.00000000	0.03139066
769.00000000	0.03793237
770.00000000	0.02404694
771.00000000	0.02176535
772.00000000	0.03194586
773.00000000	0.02575685
774.00000000	0.03314121
775.00000000	0.02838555
776.00000000	0.04798594
777.00000000	0.01195565
778.00000000	0.01613036
779.00000000	0.01657289
780.00000000	0.01820813
781.00000000	0.02847199
782.00000000	0.01101433
783.00000000	0.01645950
784.00000000	0.00012032
785.00000000	0.01774321
786.00000000	0.04036403
787.00000000	0.01432782
788.00000000	0.02644429
789.00000000	0.00365618
790.00000000	0.01459290
791.00000000	0.01782848
792.00000000	0.02928328
793.00000000	0.00809949
794.00000000	0.01917243
795.00000000	0.01991701
796.00000000	0.02354417
797.00000000	0.01545617
798.00000000	0.00772971
799.00000000	0.01021085
800.00000000	0.03481107
801.00000000	0.00940707
802.00000000	0.01155877
803.00000000	0.01635317
804.00000000	0.01471027
805.00000000	0.02264983
806.00000000	0.01972601
807.00000000	0.00025639
808.00000000	0.00000000
809.00000000	0.02084317
810.00000000	0.01796706
811.00000000	0.01354451
812.00000000	0.03442935
813.00000000	0.02733215
814.00000000	0.00000000
815.00000000	0.01213871
816.00000000	0.01057518
817.00000000	0.00072985
818.00000000	0.03072134
819.00000000	0.01994116
820.00000000	0.01308622
821.00000000	0.01246505
822.00000000	0.00000000
823.00000000	0.00146221
824.00000000	0.00000000
825.00000000	0.00000000
826.00000000	0.01248758
827.00000000	0.01246608
828.00000000	0.00465656
829.00000000	0.00209545
830.00000000	0.01682854
831.00000000	0.00000000
832.00000000	0.03781544
833.00000000	0.00000000
834.00000000	0.00000000
835.00000000	0.02251096
836.00000000	0.00000000
837.00000000	0.00000000
838.00000000	0.00000000
839.00000000	0.00983311
840.00000000	0.00699573
841.00000000	0.00000000
842.00000000	0.01229142
843.00000000	0.00101216
844.00000000	0.00088080
845.00000000	0.00000000
846.00000000	0.00043635
847.00000000	0.01137042
848.00000000	0.00126914
849.00000000	0.00000000
850.00000000	0.00000000
851.00000000	0.02524112
852.00000000	0.00000000
853.00000000	0.00000000
854.00000000	0.00594543
855.00000000	0.00000000
856.00000000	0.00000000
857.00000000	0.00000000
858.00000000	0.01596969
859.00000000	0.04463121
860.00000000	0.00000000
861.00000000	0.03359583
862.00000000	0.00000000
863.00000000	0.00000000
864.00000000	0.00000000
865.00000000	0.00000000
866.00000000	0.04066813
867.00000000	0.00000000
868.00000000	0.00426380
869.00000000	0.00232975
870.00000000	0.00146736
871.00000000	0.01957182
872.00000000	0.00354411
873.00000000	0.03584782
874.00000000	0.01060802
875.00000000	0.00000000
876.00000000	0.00000000
877.00000000	0.00000000
878.00000000	0.01844567
879.00000000	0.00227821
880.00000000	0.00000000
881.00000000	0.00000000
882.00000000	0.00000000
883.00000000	0.00962708
884.00000000	0.00285873
885.00000000	0.00000000
886.00000000	0.00000000
887.00000000	0.00000000
888.00000000	0.02054996
889.00000000	0.00552395
890.00000000	0.00000000
891.00000000	0.00722606
892.00000000	0.03053416
893.00000000	0.00000000
894.00000000	0.00000000
895.00000000	0.02810133
896.00000000	0.00000000
897.00000000	0.08315957
898.00000000	0.00292839
899.00000000	0.00000000
900.00000000	0.00000000
