#LICA Lamps Spectra Database
#Website 1: https://guaix.fis.ucm.es/lamps_spectra
#Website 2: http://carlostapia.es/lamparas/lamps.html
#Latest update: 2017/12/17
#Tester: Carlos Eugenio Tapia Ayuga
#Correct for Electrical Dark: Yes (JAZA2310)
#Correct for Detector Non-linearity: Yes (JAZA2310)
#Correct for Flux: Yes
#Start wavelength (nm): 300
#End wavelength (nm): 900
#Steps (nm):	1
#Locus: D65 sRGB Gamma 1 CIE1931
#XYZ coordinates: 0.1937	0.1307	0.0004
#xyY coordinates: 0.5965	0.4024	0.1307
#sRGB: 109	15	0
#CCT Lindbloom (K):	0
#CCT McCamy (K):	1627
#CCT Hernández-Andrés (K):	874
#Melatonin: 0.018
#Chlorophyll a: 0.004
#Chlorophyll b: 0.213
#Beta Carotene: 0.006
#Manufacturer: Kingbright
#Luminance manufacturer: 600mc
#Other data: Kingbright Yellow 590nm
#Begin Processed Spectral Data
W	S
300.00000000	0.00000000
301.00000000	0.00000000
302.00000000	0.00060325
303.00000000	0.00000538
304.00000000	0.00000000
305.00000000	0.00000000
306.00000000	0.00000000
307.00000000	0.00000000
308.00000000	0.00000000
309.00000000	0.00054454
310.00000000	0.00250146
311.00000000	0.00114047
312.00000000	0.00000000
313.00000000	0.00494517
314.00000000	0.00013160
315.00000000	0.00082520
316.00000000	0.00167225
317.00000000	0.00000000
318.00000000	0.00284033
319.00000000	0.00000000
320.00000000	0.00000597
321.00000000	0.00000000
322.00000000	0.00523877
323.00000000	0.00000000
324.00000000	0.00000000
325.00000000	0.00000000
326.00000000	0.00298708
327.00000000	0.00000000
328.00000000	0.00029576
329.00000000	0.00000000
330.00000000	0.00000000
331.00000000	0.00000000
332.00000000	0.00000000
333.00000000	0.00065275
334.00000000	0.00000000
335.00000000	0.00000000
336.00000000	0.00007081
337.00000000	0.00009720
338.00000000	0.00000000
339.00000000	0.00081637
340.00000000	0.00000000
341.00000000	0.00000000
342.00000000	0.00083483
343.00000000	0.00021706
344.00000000	0.00000000
345.00000000	0.00000000
346.00000000	0.00000000
347.00000000	0.00047973
348.00000000	0.00000000
349.00000000	0.00263186
350.00000000	0.00016701
351.00000000	0.00000000
352.00000000	0.00000000
353.00000000	0.00023153
354.00000000	0.00000000
355.00000000	0.00176012
356.00000000	0.00036577
357.00000000	0.00000000
358.00000000	0.00000000
359.00000000	0.00029648
360.00000000	0.00071945
361.00000000	0.00061621
362.00000000	0.00011043
363.00000000	0.00000000
364.00000000	0.00010338
365.00000000	0.00000000
366.00000000	0.00000000
367.00000000	0.00195063
368.00000000	0.00000000
369.00000000	0.00014194
370.00000000	0.00000000
371.00000000	0.00039614
372.00000000	0.00001191
373.00000000	0.00000000
374.00000000	0.00046135
375.00000000	0.00001083
376.00000000	0.00000000
377.00000000	0.00156504
378.00000000	0.00000000
379.00000000	0.00004079
380.00000000	0.00000000
381.00000000	0.00016189
382.00000000	0.00000000
383.00000000	0.00032691
384.00000000	0.00000517
385.00000000	0.00017417
386.00000000	0.00075182
387.00000000	0.00000000
388.00000000	0.00000000
389.00000000	0.00050560
390.00000000	0.00000000
391.00000000	0.00000000
392.00000000	0.00034420
393.00000000	0.00122575
394.00000000	0.00000000
395.00000000	0.00000000
396.00000000	0.00000000
397.00000000	0.00041086
398.00000000	0.00000048
399.00000000	0.00048894
400.00000000	0.00000000
401.00000000	0.00000000
402.00000000	0.00000000
403.00000000	0.00047607
404.00000000	0.00004725
405.00000000	0.00007299
406.00000000	0.00002952
407.00000000	0.00000000
408.00000000	0.00000250
409.00000000	0.00004499
410.00000000	0.00026281
411.00000000	0.00074665
412.00000000	0.00000000
413.00000000	0.00000000
414.00000000	0.00000000
415.00000000	0.00044097
416.00000000	0.00000000
417.00000000	0.00000000
418.00000000	0.00000000
419.00000000	0.00056579
420.00000000	0.00000000
421.00000000	0.00006895
422.00000000	0.00000000
423.00000000	0.00002044
424.00000000	0.00000000
425.00000000	0.00030457
426.00000000	0.00047026
427.00000000	0.00000000
428.00000000	0.00000000
429.00000000	0.00000000
430.00000000	0.00000000
431.00000000	0.00000000
432.00000000	0.00000000
433.00000000	0.00032797
434.00000000	0.00001061
435.00000000	0.00000000
436.00000000	0.00013168
437.00000000	0.00004211
438.00000000	0.00169329
439.00000000	0.00026715
440.00000000	0.00020319
441.00000000	0.00070173
442.00000000	0.00000000
443.00000000	0.00000000
444.00000000	0.00000000
445.00000000	0.00000000
446.00000000	0.00000000
447.00000000	0.00000000
448.00000000	0.00008440
449.00000000	0.00007766
450.00000000	0.00000259
451.00000000	0.00014932
452.00000000	0.00025134
453.00000000	0.00061571
454.00000000	0.00104326
455.00000000	0.00066462
456.00000000	0.00062236
457.00000000	0.00000137
458.00000000	0.00000000
459.00000000	0.00000000
460.00000000	0.00000000
461.00000000	0.00000765
462.00000000	0.00000000
463.00000000	0.00000000
464.00000000	0.00000000
465.00000000	0.00000000
466.00000000	0.00018133
467.00000000	0.00000000
468.00000000	0.00036300
469.00000000	0.00000000
470.00000000	0.00000000
471.00000000	0.00000000
472.00000000	0.00010283
473.00000000	0.00000000
474.00000000	0.00000000
475.00000000	0.00000000
476.00000000	0.00050934
477.00000000	0.00000071
478.00000000	0.00000440
479.00000000	0.00007465
480.00000000	0.00001839
481.00000000	0.00042345
482.00000000	0.00000000
483.00000000	0.00000000
484.00000000	0.00000068
485.00000000	0.00075671
486.00000000	0.00000000
487.00000000	0.00002533
488.00000000	0.00000578
489.00000000	0.00000000
490.00000000	0.00028898
491.00000000	0.00000000
492.00000000	0.00023986
493.00000000	0.00006247
494.00000000	0.00015317
495.00000000	0.00011876
496.00000000	0.00003993
497.00000000	0.00001805
498.00000000	0.00000000
499.00000000	0.00029526
500.00000000	0.00007906
501.00000000	0.00017569
502.00000000	0.00000000
503.00000000	0.00000000
504.00000000	0.00002001
505.00000000	0.00065244
506.00000000	0.00000011
507.00000000	0.00007697
508.00000000	0.00000000
509.00000000	0.00000000
510.00000000	0.00000000
511.00000000	0.00000000
512.00000000	0.00008840
513.00000000	0.00002943
514.00000000	0.00000000
515.00000000	0.00049385
516.00000000	0.00012723
517.00000000	0.00000000
518.00000000	0.00000103
519.00000000	0.00017806
520.00000000	0.00023143
521.00000000	0.00065829
522.00000000	0.00000094
523.00000000	0.00012658
524.00000000	0.00000488
525.00000000	0.00021162
526.00000000	0.00034547
527.00000000	0.00000764
528.00000000	0.00004888
529.00000000	0.00041277
530.00000000	0.00000084
531.00000000	0.00000000
532.00000000	0.00073739
533.00000000	0.00074122
534.00000000	0.00025314
535.00000000	0.00028721
536.00000000	0.00014785
537.00000000	0.00095245
538.00000000	0.00111235
539.00000000	0.00110457
540.00000000	0.00118051
541.00000000	0.00143079
542.00000000	0.00173007
543.00000000	0.00158774
544.00000000	0.00081256
545.00000000	0.00183777
546.00000000	0.00202093
547.00000000	0.00167294
548.00000000	0.00256088
549.00000000	0.00362546
550.00000000	0.00288635
551.00000000	0.00451737
552.00000000	0.00442391
553.00000000	0.00455141
554.00000000	0.00558440
555.00000000	0.00624874
556.00000000	0.00777185
557.00000000	0.00895506
558.00000000	0.00960592
559.00000000	0.01172406
560.00000000	0.01328190
561.00000000	0.01560833
562.00000000	0.01727029
563.00000000	0.02085750
564.00000000	0.02290787
565.00000000	0.02647902
566.00000000	0.03053574
567.00000000	0.03246417
568.00000000	0.03879444
569.00000000	0.04410076
570.00000000	0.04980953
571.00000000	0.05432975
572.00000000	0.06556392
573.00000000	0.07087850
574.00000000	0.07891345
575.00000000	0.08780353
576.00000000	0.09983162
577.00000000	0.11677774
578.00000000	0.13035982
579.00000000	0.14774894
580.00000000	0.16553492
581.00000000	0.18780997
582.00000000	0.21310626
583.00000000	0.24889698
584.00000000	0.28603351
585.00000000	0.32284072
586.00000000	0.37043559
587.00000000	0.41415897
588.00000000	0.47329669
589.00000000	0.53462252
590.00000000	0.60482952
591.00000000	0.67350793
592.00000000	0.75362711
593.00000000	0.81978917
594.00000000	0.89728142
595.00000000	0.96566189
596.00000000	0.99764936
597.00000000	1.00000000
598.00000000	0.95279174
599.00000000	0.88152858
600.00000000	0.77470476
601.00000000	0.65998999
602.00000000	0.56253807
603.00000000	0.48267782
604.00000000	0.41011476
605.00000000	0.36627044
606.00000000	0.33004241
607.00000000	0.30657204
608.00000000	0.28185623
609.00000000	0.25760426
610.00000000	0.23640542
611.00000000	0.21016305
612.00000000	0.18553951
613.00000000	0.15682802
614.00000000	0.13767771
615.00000000	0.11599503
616.00000000	0.10099582
617.00000000	0.08281815
618.00000000	0.07078831
619.00000000	0.06192026
620.00000000	0.05428117
621.00000000	0.04582104
622.00000000	0.03982962
623.00000000	0.03340766
624.00000000	0.02769402
625.00000000	0.02467233
626.00000000	0.02041601
627.00000000	0.01761616
628.00000000	0.01596700
629.00000000	0.01290484
630.00000000	0.01089375
631.00000000	0.00940617
632.00000000	0.00856407
633.00000000	0.00678806
634.00000000	0.00576148
635.00000000	0.00521351
636.00000000	0.00434190
637.00000000	0.00450611
638.00000000	0.00380538
639.00000000	0.00271930
640.00000000	0.00326663
641.00000000	0.00115479
642.00000000	0.00098492
643.00000000	0.00200815
644.00000000	0.00047121
645.00000000	0.00141852
646.00000000	0.00125518
647.00000000	0.00155123
648.00000000	0.00035540
649.00000000	0.00102015
650.00000000	0.00124677
651.00000000	0.00027210
652.00000000	0.00013337
653.00000000	0.00050817
654.00000000	0.00172433
655.00000000	0.00030242
656.00000000	0.00166587
657.00000000	0.00000000
658.00000000	0.00139376
659.00000000	0.00067382
660.00000000	0.00101983
661.00000000	0.00029926
662.00000000	0.00019271
663.00000000	0.00064436
664.00000000	0.00055972
665.00000000	0.00027565
666.00000000	0.00017802
667.00000000	0.00003405
668.00000000	0.00000247
669.00000000	0.00011700
670.00000000	0.00000000
671.00000000	0.00185507
672.00000000	0.00077644
673.00000000	0.00000000
674.00000000	0.00000075
675.00000000	0.00000285
676.00000000	0.00041529
677.00000000	0.00000000
678.00000000	0.00005620
679.00000000	0.00039710
680.00000000	0.00017463
681.00000000	0.00071702
682.00000000	0.00000300
683.00000000	0.00000000
684.00000000	0.00000000
685.00000000	0.00078383
686.00000000	0.00000000
687.00000000	0.00137911
688.00000000	0.00077950
689.00000000	0.00000014
690.00000000	0.00000000
691.00000000	0.00104079
692.00000000	0.00000000
693.00000000	0.00000000
694.00000000	0.00003303
695.00000000	0.00000000
696.00000000	0.00000351
697.00000000	0.00000000
698.00000000	0.00000000
699.00000000	0.00000035
700.00000000	0.00159868
701.00000000	0.00000256
702.00000000	0.00000000
703.00000000	0.00009552
704.00000000	0.00090223
705.00000000	0.00000068
706.00000000	0.00108199
707.00000000	0.00000000
708.00000000	0.00027491
709.00000000	0.00001023
710.00000000	0.00000000
711.00000000	0.00000000
712.00000000	0.00000000
713.00000000	0.00021634
714.00000000	0.00000000
715.00000000	0.00121139
716.00000000	0.00014142
717.00000000	0.00000000
718.00000000	0.00181718
719.00000000	0.00000636
720.00000000	0.00000000
721.00000000	0.00000845
722.00000000	0.00000000
723.00000000	0.00198900
724.00000000	0.00000000
725.00000000	0.00000000
726.00000000	0.00023851
727.00000000	0.00000000
728.00000000	0.00203602
729.00000000	0.00017667
730.00000000	0.00064779
731.00000000	0.00109631
732.00000000	0.00000000
733.00000000	0.00066498
734.00000000	0.00000000
735.00000000	0.00000000
736.00000000	0.00268127
737.00000000	0.00036427
738.00000000	0.00003341
739.00000000	0.00060990
740.00000000	0.00010126
741.00000000	0.00010091
742.00000000	0.00000000
743.00000000	0.00000000
744.00000000	0.00000000
745.00000000	0.00041939
746.00000000	0.00112200
747.00000000	0.00000000
748.00000000	0.00000000
749.00000000	0.00000000
750.00000000	0.00000000
751.00000000	0.00000000
752.00000000	0.00000000
753.00000000	0.00002994
754.00000000	0.00000000
755.00000000	0.00011654
756.00000000	0.00003991
757.00000000	0.00000000
758.00000000	0.00000000
759.00000000	0.00118049
760.00000000	0.00000000
761.00000000	0.00000000
762.00000000	0.00304880
763.00000000	0.00000000
764.00000000	0.00000000
765.00000000	0.00036091
766.00000000	0.00000000
767.00000000	0.00000000
768.00000000	0.00000000
769.00000000	0.00000000
770.00000000	0.00019930
771.00000000	0.00000000
772.00000000	0.00000000
773.00000000	0.00000000
774.00000000	0.00012213
775.00000000	0.00139941
776.00000000	0.00000000
777.00000000	0.00129558
778.00000000	0.00000000
779.00000000	0.00246874
780.00000000	0.00000000
781.00000000	0.00056240
782.00000000	0.00000000
783.00000000	0.00000000
784.00000000	0.00222942
785.00000000	0.00050260
786.00000000	0.00000000
787.00000000	0.00000000
788.00000000	0.00000000
789.00000000	0.00000000
790.00000000	0.00173829
791.00000000	0.00000000
792.00000000	0.00000000
793.00000000	0.00000000
794.00000000	0.00000000
795.00000000	0.00000000
796.00000000	0.00063054
797.00000000	0.00307258
798.00000000	0.00000000
799.00000000	0.00000000
800.00000000	0.00000000
801.00000000	0.00000000
802.00000000	0.00028373
803.00000000	0.00001940
804.00000000	0.00000000
805.00000000	0.00000000
806.00000000	0.00000000
807.00000000	0.00000000
808.00000000	0.00000000
809.00000000	0.00000000
810.00000000	0.00000000
811.00000000	0.00000000
812.00000000	0.00000000
813.00000000	0.00000000
814.00000000	0.00000000
815.00000000	0.00051859
816.00000000	0.00528832
817.00000000	0.00064819
818.00000000	0.00482371
819.00000000	0.00000000
820.00000000	0.00000000
821.00000000	0.00000000
822.00000000	0.00025108
823.00000000	0.00000000
824.00000000	0.00000000
825.00000000	0.00277542
826.00000000	0.00684758
827.00000000	0.00151895
828.00000000	0.00000000
829.00000000	0.00000307
830.00000000	0.00000000
831.00000000	0.00000000
832.00000000	0.00000000
833.00000000	0.00029074
834.00000000	0.00145065
835.00000000	0.00000000
836.00000000	0.00000000
837.00000000	0.00000000
838.00000000	0.00000000
839.00000000	0.00009268
840.00000000	0.00000000
841.00000000	0.00054746
842.00000000	0.00000000
843.00000000	0.00552872
844.00000000	0.00000005
845.00000000	0.00779134
846.00000000	0.00000000
847.00000000	0.00024390
848.00000000	0.00000000
849.00000000	0.00000000
850.00000000	0.00131428
851.00000000	0.00000000
852.00000000	0.00044499
853.00000000	0.00000000
854.00000000	0.00090799
855.00000000	0.00394741
856.00000000	0.00742865
857.00000000	0.00243209
858.00000000	0.00799306
859.00000000	0.00191535
860.00000000	0.00394570
861.00000000	0.00623522
862.00000000	0.00000000
863.00000000	0.00561691
864.00000000	0.00087544
865.00000000	0.00000029
866.00000000	0.00170263
867.00000000	0.00000000
868.00000000	0.00321216
869.00000000	0.00319275
870.00000000	0.00000000
871.00000000	0.00351798
872.00000000	0.01102144
873.00000000	0.00000000
874.00000000	0.01796658
875.00000000	0.00387663
876.00000000	0.00447529
877.00000000	0.00388498
878.00000000	0.00000000
879.00000000	0.00250081
880.00000000	0.00008140
881.00000000	0.00301932
882.00000000	0.00732441
883.00000000	0.00427609
884.00000000	0.00000013
885.00000000	0.00000000
886.00000000	0.01398987
887.00000000	0.00000000
888.00000000	0.00139083
889.00000000	0.00002560
890.00000000	0.00083094
891.00000000	0.00000000
892.00000000	0.01490744
893.00000000	0.00922848
894.00000000	0.00000000
895.00000000	0.00130815
896.00000000	0.01299108
897.00000000	0.00121407
898.00000000	0.00547711
899.00000000	0.00854555
900.00000000	0.00430694
