#LICA Lamps Spectra Database
#Website 1: https://guaix.fis.ucm.es/lamps_spectra
#Website 2: http://carlostapia.es/lamparas/lamps.html
#Latest update: 2017/12/15
#Tester: Carlos Eugenio Tapia Ayuga
#Correct for Electrical Dark: Yes (JAZA2310)
#Correct for Detector Non-linearity: Yes (JAZA2310)
#Correct for Flux: Yes
#Start wavelength (nm): 300
#End wavelength (nm): 900
#Steps (nm):	1
#Locus: D65 sRGB Gamma 1 CIE1931
#XYZ coordinates: 0.0281	0.0208	0.0001
#xyY coordinates: 0.5735	0.4247	0.0208
#sRGB: 15	3	0
#CCT Lindbloom (K):	1701
#CCT McCamy (K):	1761
#CCT Hernández-Andrés (K):	1298
#Melatonin: 0.020
#Chlorophyll a: 0.012
#Chlorophyll b: 0.207
#Beta Carotene: 0.013
#Manufacturer: Unknown
#Luminance manufacturer: Unknown
#Other data:
#Begin Processed Spectral Data
W	S
300.00000000	0.00000000
301.00000000	0.00000000
302.00000000	0.00000000
303.00000000	0.00000000
304.00000000	0.00000000
305.00000000	0.00000000
306.00000000	0.00079638
307.00000000	0.00000000
308.00000000	0.00000000
309.00000000	0.00000000
310.00000000	0.00000000
311.00000000	0.00000000
312.00000000	0.00000000
313.00000000	0.00000000
314.00000000	0.00219537
315.00000000	0.00000000
316.00000000	0.00000000
317.00000000	0.00000000
318.00000000	0.00000000
319.00000000	0.00000000
320.00000000	0.00000000
321.00000000	0.00000000
322.00000000	0.00000000
323.00000000	0.00000000
324.00000000	0.00000000
325.00000000	0.00000000
326.00000000	0.00000000
327.00000000	0.00000000
328.00000000	0.00000000
329.00000000	0.00000000
330.00000000	0.00000000
331.00000000	0.00000000
332.00000000	0.00000000
333.00000000	0.00000000
334.00000000	0.00000000
335.00000000	0.00198087
336.00000000	0.00000000
337.00000000	0.00000000
338.00000000	0.00000000
339.00000000	0.00000000
340.00000000	0.00000000
341.00000000	0.00000000
342.00000000	0.00745824
343.00000000	0.00000000
344.00000000	0.00000000
345.00000000	0.00000000
346.00000000	0.00000000
347.00000000	0.00000000
348.00000000	0.00000000
349.00000000	0.00000000
350.00000000	0.00000000
351.00000000	0.00000000
352.00000000	0.00000000
353.00000000	0.00000000
354.00000000	0.00224624
355.00000000	0.00000000
356.00000000	0.00000000
357.00000000	0.00000000
358.00000000	0.00000000
359.00000000	0.00000000
360.00000000	0.00000000
361.00000000	0.00000000
362.00000000	0.00000000
363.00000000	0.00000000
364.00000000	0.00000000
365.00000000	0.00000000
366.00000000	0.00000000
367.00000000	0.00000000
368.00000000	0.00000000
369.00000000	0.00000000
370.00000000	0.00000000
371.00000000	0.00013932
372.00000000	0.00000000
373.00000000	0.00000000
374.00000000	0.00000000
375.00000000	0.00000000
376.00000000	0.00000000
377.00000000	0.00000000
378.00000000	0.00000000
379.00000000	0.00000000
380.00000000	0.00000000
381.00000000	0.00000000
382.00000000	0.00000000
383.00000000	0.00000000
384.00000000	0.00000000
385.00000000	0.00000000
386.00000000	0.00000000
387.00000000	0.00005390
388.00000000	0.00000000
389.00000000	0.00000000
390.00000000	0.00000000
391.00000000	0.00000000
392.00000000	0.00000000
393.00000000	0.00000000
394.00000000	0.00000000
395.00000000	0.00000000
396.00000000	0.00000000
397.00000000	0.00000000
398.00000000	0.00000000
399.00000000	0.00000000
400.00000000	0.00000000
401.00000000	0.00000000
402.00000000	0.00000000
403.00000000	0.00000000
404.00000000	0.00077786
405.00000000	0.00000000
406.00000000	0.00000000
407.00000000	0.00000000
408.00000000	0.00000000
409.00000000	0.00000000
410.00000000	0.00000000
411.00000000	0.00000000
412.00000000	0.00000000
413.00000000	0.00000000
414.00000000	0.00000000
415.00000000	0.00000000
416.00000000	0.00000000
417.00000000	0.00000000
418.00000000	0.00000000
419.00000000	0.00000000
420.00000000	0.00000000
421.00000000	0.00000000
422.00000000	0.00000000
423.00000000	0.00000000
424.00000000	0.00000000
425.00000000	0.00000000
426.00000000	0.00000000
427.00000000	0.00000000
428.00000000	0.00000000
429.00000000	0.00000000
430.00000000	0.00000000
431.00000000	0.00000000
432.00000000	0.00000000
433.00000000	0.00000000
434.00000000	0.00007823
435.00000000	0.00054871
436.00000000	0.00000000
437.00000000	0.00000000
438.00000000	0.00000000
439.00000000	0.00000000
440.00000000	0.00000000
441.00000000	0.00000000
442.00000000	0.00000000
443.00000000	0.00000000
444.00000000	0.00000000
445.00000000	0.00000000
446.00000000	0.00000000
447.00000000	0.00124723
448.00000000	0.00000000
449.00000000	0.00000000
450.00000000	0.00000000
451.00000000	0.00000000
452.00000000	0.00000000
453.00000000	0.00000000
454.00000000	0.00000000
455.00000000	0.00000000
456.00000000	0.00000000
457.00000000	0.00000000
458.00000000	0.00000000
459.00000000	0.00000000
460.00000000	0.00000000
461.00000000	0.00000000
462.00000000	0.00000000
463.00000000	0.00000000
464.00000000	0.00000000
465.00000000	0.00000000
466.00000000	0.00017221
467.00000000	0.00005059
468.00000000	0.00000000
469.00000000	0.00000000
470.00000000	0.00000000
471.00000000	0.00000000
472.00000000	0.00000000
473.00000000	0.00000000
474.00000000	0.00000000
475.00000000	0.00000000
476.00000000	0.00000000
477.00000000	0.00000000
478.00000000	0.00000000
479.00000000	0.00137384
480.00000000	0.00045057
481.00000000	0.00000000
482.00000000	0.00000000
483.00000000	0.00000000
484.00000000	0.00041630
485.00000000	0.00000000
486.00000000	0.00000000
487.00000000	0.00018272
488.00000000	0.00000000
489.00000000	0.00000000
490.00000000	0.00000000
491.00000000	0.00000000
492.00000000	0.00000000
493.00000000	0.00000000
494.00000000	0.00000000
495.00000000	0.00000000
496.00000000	0.00000000
497.00000000	0.00000000
498.00000000	0.00064158
499.00000000	0.00066840
500.00000000	0.00000000
501.00000000	0.00000000
502.00000000	0.00000000
503.00000000	0.00000000
504.00000000	0.00000000
505.00000000	0.00000000
506.00000000	0.00000000
507.00000000	0.00000000
508.00000000	0.00000000
509.00000000	0.00000000
510.00000000	0.00000000
511.00000000	0.00000000
512.00000000	0.00000000
513.00000000	0.00000000
514.00000000	0.00000000
515.00000000	0.00000000
516.00000000	0.00000000
517.00000000	0.00000000
518.00000000	0.00000000
519.00000000	0.00040386
520.00000000	0.00000000
521.00000000	0.00000000
522.00000000	0.00000000
523.00000000	0.00000000
524.00000000	0.00000000
525.00000000	0.00000000
526.00000000	0.00000000
527.00000000	0.00000000
528.00000000	0.00000000
529.00000000	0.00000000
530.00000000	0.00000000
531.00000000	0.00000000
532.00000000	0.00000000
533.00000000	0.00000000
534.00000000	0.00000000
535.00000000	0.00000000
536.00000000	0.00000000
537.00000000	0.00019267
538.00000000	0.00000000
539.00000000	0.00000000
540.00000000	0.00000000
541.00000000	0.00000000
542.00000000	0.00000000
543.00000000	0.00000000
544.00000000	0.00000000
545.00000000	0.00000000
546.00000000	0.00000000
547.00000000	0.00000000
548.00000000	0.00000000
549.00000000	0.00000000
550.00000000	0.00000000
551.00000000	0.00000000
552.00000000	0.00000000
553.00000000	0.00000000
554.00000000	0.00026039
555.00000000	0.00000000
556.00000000	0.00000000
557.00000000	0.00032563
558.00000000	0.00000000
559.00000000	0.00000000
560.00000000	0.00000000
561.00000000	0.00000000
562.00000000	0.00000000
563.00000000	0.00000000
564.00000000	0.00000000
565.00000000	0.00000000
566.00000000	0.00000000
567.00000000	0.00000000
568.00000000	0.00277062
569.00000000	0.00779106
570.00000000	0.00327924
571.00000000	0.00057884
572.00000000	0.00000000
573.00000000	0.00000000
574.00000000	0.00000000
575.00000000	0.00070433
576.00000000	0.00083950
577.00000000	0.00000000
578.00000000	0.00000000
579.00000000	0.00038755
580.00000000	0.00015507
581.00000000	0.00000000
582.00000000	0.00083619
583.00000000	0.00052244
584.00000000	0.00000000
585.00000000	0.00118670
586.00000000	0.00140645
587.00000000	0.00420195
588.00000000	0.08746912
589.00000000	0.96088410
590.00000000	1.00000000
591.00000000	0.42171374
592.00000000	0.17777548
593.00000000	0.04694732
594.00000000	0.00978989
595.00000000	0.00356672
596.00000000	0.00323390
597.00000000	0.00074994
598.00000000	0.00036405
599.00000000	0.00069659
600.00000000	0.00111538
601.00000000	0.00000000
602.00000000	0.00000000
603.00000000	0.00000000
604.00000000	0.00059791
605.00000000	0.00000000
606.00000000	0.00000000
607.00000000	0.00000000
608.00000000	0.00000000
609.00000000	0.00000000
610.00000000	0.00000000
611.00000000	0.00000000
612.00000000	0.00000000
613.00000000	0.00000000
614.00000000	0.00158364
615.00000000	0.00093902
616.00000000	0.00205108
617.00000000	0.00168758
618.00000000	0.00000000
619.00000000	0.00000000
620.00000000	0.00125801
621.00000000	0.00000000
622.00000000	0.00000000
623.00000000	0.00000000
624.00000000	0.00000000
625.00000000	0.00000000
626.00000000	0.00000000
627.00000000	0.00000000
628.00000000	0.00057386
629.00000000	0.00000000
630.00000000	0.00000000
631.00000000	0.00000000
632.00000000	0.00000000
633.00000000	0.00000000
634.00000000	0.00000000
635.00000000	0.00000000
636.00000000	0.00000000
637.00000000	0.00000000
638.00000000	0.00048900
639.00000000	0.00007076
640.00000000	0.00000000
641.00000000	0.00030269
642.00000000	0.00000000
643.00000000	0.00000000
644.00000000	0.00000000
645.00000000	0.00000000
646.00000000	0.00000000
647.00000000	0.00000000
648.00000000	0.00055534
649.00000000	0.00000000
650.00000000	0.00000000
651.00000000	0.00000000
652.00000000	0.00000000
653.00000000	0.00000000
654.00000000	0.00000000
655.00000000	0.00000000
656.00000000	0.00000000
657.00000000	0.00000000
658.00000000	0.00000000
659.00000000	0.00052853
660.00000000	0.00000000
661.00000000	0.00000000
662.00000000	0.00000000
663.00000000	0.00000000
664.00000000	0.00000000
665.00000000	0.00000000
666.00000000	0.00000000
667.00000000	0.00000000
668.00000000	0.00000000
669.00000000	0.00000000
670.00000000	0.00000000
671.00000000	0.00000000
672.00000000	0.00000000
673.00000000	0.00000000
674.00000000	0.00000000
675.00000000	0.00000000
676.00000000	0.00000000
677.00000000	0.00000000
678.00000000	0.00000000
679.00000000	0.00000000
680.00000000	0.00000000
681.00000000	0.00000000
682.00000000	0.00000000
683.00000000	0.00000000
684.00000000	0.00051636
685.00000000	0.00000000
686.00000000	0.00000000
687.00000000	0.00001493
688.00000000	0.00000000
689.00000000	0.00000000
690.00000000	0.00037013
691.00000000	0.00000000
692.00000000	0.00000000
693.00000000	0.00000000
694.00000000	0.00000000
695.00000000	0.00000000
696.00000000	0.00000000
697.00000000	0.00000000
698.00000000	0.00000000
699.00000000	0.00000000
700.00000000	0.00000000
701.00000000	0.00000000
702.00000000	0.00000000
703.00000000	0.00000000
704.00000000	0.00208121
705.00000000	0.00019405
706.00000000	0.00000000
707.00000000	0.00000000
708.00000000	0.00000000
709.00000000	0.00000000
710.00000000	0.00000000
711.00000000	0.00000000
712.00000000	0.00000000
713.00000000	0.00000000
714.00000000	0.00000000
715.00000000	0.00000000
716.00000000	0.00000000
717.00000000	0.00000000
718.00000000	0.00411709
719.00000000	0.00000000
720.00000000	0.00000000
721.00000000	0.00146561
722.00000000	0.00000000
723.00000000	0.00000000
724.00000000	0.00000000
725.00000000	0.00000000
726.00000000	0.00000000
727.00000000	0.00000000
728.00000000	0.00000000
729.00000000	0.00000000
730.00000000	0.00000000
731.00000000	0.00000000
732.00000000	0.00000000
733.00000000	0.00000000
734.00000000	0.00000000
735.00000000	0.00000000
736.00000000	0.00000000
737.00000000	0.00000000
738.00000000	0.00000000
739.00000000	0.00000000
740.00000000	0.00033945
741.00000000	0.00000000
742.00000000	0.00000000
743.00000000	0.00000000
744.00000000	0.00000000
745.00000000	0.00000000
746.00000000	0.00000000
747.00000000	0.00000000
748.00000000	0.00000000
749.00000000	0.00167293
750.00000000	0.00000000
751.00000000	0.00119582
752.00000000	0.00000000
753.00000000	0.00011333
754.00000000	0.00000000
755.00000000	0.00000000
756.00000000	0.00000000
757.00000000	0.00000000
758.00000000	0.00000000
759.00000000	0.00000000
760.00000000	0.00000000
761.00000000	0.00000000
762.00000000	0.00000000
763.00000000	0.00000000
764.00000000	0.00059625
765.00000000	0.00000000
766.00000000	0.00771338
767.00000000	0.00384536
768.00000000	0.00000000
769.00000000	0.00000000
770.00000000	0.00000000
771.00000000	0.00128289
772.00000000	0.00000000
773.00000000	0.00000000
774.00000000	0.00092907
775.00000000	0.00000000
776.00000000	0.00000000
777.00000000	0.00000000
778.00000000	0.00043095
779.00000000	0.00000000
780.00000000	0.00233469
781.00000000	0.00280959
782.00000000	0.00000000
783.00000000	0.00000000
784.00000000	0.00000000
785.00000000	0.00000000
786.00000000	0.00000000
787.00000000	0.00030739
788.00000000	0.00000000
789.00000000	0.00000000
790.00000000	0.00000000
791.00000000	0.00000000
792.00000000	0.00000000
793.00000000	0.00000000
794.00000000	0.00000000
795.00000000	0.00000000
796.00000000	0.00000000
797.00000000	0.00000000
798.00000000	0.00388433
799.00000000	0.00000000
800.00000000	0.00000000
801.00000000	0.00000000
802.00000000	0.00000000
803.00000000	0.00000000
804.00000000	0.00390562
805.00000000	0.00000000
806.00000000	0.00000000
807.00000000	0.00000000
808.00000000	0.00000000
809.00000000	0.00000000
810.00000000	0.00000000
811.00000000	0.00000000
812.00000000	0.00000000
813.00000000	0.00000000
814.00000000	0.00000000
815.00000000	0.00000000
816.00000000	0.00000000
817.00000000	0.00000000
818.00000000	0.03434479
819.00000000	0.04858431
820.00000000	0.05241668
821.00000000	0.02519565
822.00000000	0.00424590
823.00000000	0.00000000
824.00000000	0.00000000
825.00000000	0.00000000
826.00000000	0.00000000
827.00000000	0.00000000
828.00000000	0.00000000
829.00000000	0.00000000
830.00000000	0.00000000
831.00000000	0.00000000
832.00000000	0.00000000
833.00000000	0.00000000
834.00000000	0.00000000
835.00000000	0.00000000
836.00000000	0.00000000
837.00000000	0.00000000
838.00000000	0.00000000
839.00000000	0.00000000
840.00000000	0.00000000
841.00000000	0.00000000
842.00000000	0.00000000
843.00000000	0.00000000
844.00000000	0.00000000
845.00000000	0.00000000
846.00000000	0.00000000
847.00000000	0.00000000
848.00000000	0.00000000
849.00000000	0.00000000
850.00000000	0.00000000
851.00000000	0.00495383
852.00000000	0.00000000
853.00000000	0.00000000
854.00000000	0.00000000
855.00000000	0.00000000
856.00000000	0.00000000
857.00000000	0.00000000
858.00000000	0.00000000
859.00000000	0.00000000
860.00000000	0.00000000
861.00000000	0.00525319
862.00000000	0.00000000
863.00000000	0.00000000
864.00000000	0.00000000
865.00000000	0.00972189
866.00000000	0.00000000
867.00000000	0.00291961
868.00000000	0.00000000
869.00000000	0.00000000
870.00000000	0.00000000
871.00000000	0.00000000
872.00000000	0.00000000
873.00000000	0.00534552
874.00000000	0.00000000
875.00000000	0.00000000
876.00000000	0.00000000
877.00000000	0.00000000
878.00000000	0.00000000
879.00000000	0.00000000
880.00000000	0.00000000
881.00000000	0.00676580
882.00000000	0.00000000
883.00000000	0.00000000
884.00000000	0.00000000
885.00000000	0.00000000
886.00000000	0.00000000
887.00000000	0.00000000
888.00000000	0.00000000
889.00000000	0.00000000
890.00000000	0.00000000
891.00000000	0.00000000
892.00000000	0.00000000
893.00000000	0.00000000
894.00000000	0.00000000
895.00000000	0.00000000
896.00000000	0.00000000
897.00000000	0.00000000
898.00000000	0.00000000
899.00000000	0.00000000
900.00000000	0.00402863
