#LICA Lamps Spectra Database
#Website 1: https://guaix.fis.ucm.es/lamps_spectra
#Website 2: http://carlostapia.es/lamparas/lamps.html
#Latest update: 2018/04/25
#Tester: Carlos Eugenio Tapia Ayuga
#Correct for Electrical Dark: Yes (JAZA2310)
#Correct for Detector Non-linearity: Yes (JAZA2310)
#Correct for Flux: Yes
#Start wavelength (nm): 300
#End wavelength (nm): 900
#Steps (nm):	1
#Locus: D65 sRGB Gamma 1 CIE1931
#XYZ coordinates: 0.1794	0.1954	0.1649
#xyY coordinates: 0.3324	0.3621	0.1954
#sRGB: 51	51	37
#CCT Lindbloom (K):	5506
#CCT McCamy (K):	5506
#CCT Hernández-Andrés (K):	5490
#Melatonin: 0.808
#Chlorophyll a: 0.510
#Chlorophyll b: 0.805
#Beta Carotene: 0.513
#Manufacturer: Unknown
#Luminance manufacturer: Unknown
#Other data: New street lamp in Calle Ronda in Almería
#Begin Processed Spectral Data
W	S
300.00000000	0.00000572
301.00000000	0.00316636
302.00000000	0.00012528
303.00000000	0.00000000
304.00000000	0.00000000
305.00000000	0.00981514
306.00000000	0.00135212
307.00000000	0.00352303
308.00000000	0.00000003
309.00000000	0.00037694
310.00000000	0.00941155
311.00000000	0.00149583
312.00000000	0.00021264
313.00000000	0.00000000
314.00000000	0.00000000
315.00000000	0.00002790
316.00000000	0.00000000
317.00000000	0.00484294
318.00000000	0.01113992
319.00000000	0.00209968
320.00000000	0.00000000
321.00000000	0.01034460
322.00000000	0.00000000
323.00000000	0.00856520
324.00000000	0.00293531
325.00000000	0.00163649
326.00000000	0.00000000
327.00000000	0.00000000
328.00000000	0.00014372
329.00000000	0.00531089
330.00000000	0.00000000
331.00000000	0.00000000
332.00000000	0.00000000
333.00000000	0.00000000
334.00000000	0.00317521
335.00000000	0.00000000
336.00000000	0.00000000
337.00000000	0.00000000
338.00000000	0.00000000
339.00000000	0.00276187
340.00000000	0.00070014
341.00000000	0.00000048
342.00000000	0.00896963
343.00000000	0.00000000
344.00000000	0.00044274
345.00000000	0.00000000
346.00000000	0.00725401
347.00000000	0.00413924
348.00000000	0.00092901
349.00000000	0.00037814
350.00000000	0.01259794
351.00000000	0.00850453
352.00000000	0.01196564
353.00000000	0.02634087
354.00000000	0.04709531
355.00000000	0.03274102
356.00000000	0.03105074
357.00000000	0.01980276
358.00000000	0.02270156
359.00000000	0.02715593
360.00000000	0.02394861
361.00000000	0.02623499
362.00000000	0.02855668
363.00000000	0.03474409
364.00000000	0.03836736
365.00000000	0.04518631
366.00000000	0.06738334
367.00000000	0.06477893
368.00000000	0.05481659
369.00000000	0.04834279
370.00000000	0.04907876
371.00000000	0.05196014
372.00000000	0.05573413
373.00000000	0.05137583
374.00000000	0.06016405
375.00000000	0.06142288
376.00000000	0.06026397
377.00000000	0.06850395
378.00000000	0.06518466
379.00000000	0.05648977
380.00000000	0.04694782
381.00000000	0.03968420
382.00000000	0.03413091
383.00000000	0.03158269
384.00000000	0.04360270
385.00000000	0.04420074
386.00000000	0.04192860
387.00000000	0.04973574
388.00000000	0.05532811
389.00000000	0.05223355
390.00000000	0.05311804
391.00000000	0.05605265
392.00000000	0.05804352
393.00000000	0.05938128
394.00000000	0.06941985
395.00000000	0.08053563
396.00000000	0.06980843
397.00000000	0.08475530
398.00000000	0.08766867
399.00000000	0.08600225
400.00000000	0.08581499
401.00000000	0.09309720
402.00000000	0.09220572
403.00000000	0.09984352
404.00000000	0.10578972
405.00000000	0.11969076
406.00000000	0.13247056
407.00000000	0.10793561
408.00000000	0.11303419
409.00000000	0.12412225
410.00000000	0.12083377
411.00000000	0.13408074
412.00000000	0.12082542
413.00000000	0.12033769
414.00000000	0.15992026
415.00000000	0.17235613
416.00000000	0.16474148
417.00000000	0.17652976
418.00000000	0.20961437
419.00000000	0.23974609
420.00000000	0.29310250
421.00000000	0.29515040
422.00000000	0.33471333
423.00000000	0.35214583
424.00000000	0.28453700
425.00000000	0.23233641
426.00000000	0.19816382
427.00000000	0.17487951
428.00000000	0.15718108
429.00000000	0.15240722
430.00000000	0.15425005
431.00000000	0.15230024
432.00000000	0.16182771
433.00000000	0.14378577
434.00000000	0.12725196
435.00000000	0.12871908
436.00000000	0.16400448
437.00000000	0.19044686
438.00000000	0.15149937
439.00000000	0.13257615
440.00000000	0.12303156
441.00000000	0.12985247
442.00000000	0.12812136
443.00000000	0.11641330
444.00000000	0.10761104
445.00000000	0.12149711
446.00000000	0.12230033
447.00000000	0.12641496
448.00000000	0.12212326
449.00000000	0.14710954
450.00000000	0.12689894
451.00000000	0.11587607
452.00000000	0.12057136
453.00000000	0.13250251
454.00000000	0.13588382
455.00000000	0.12655974
456.00000000	0.14521921
457.00000000	0.15865083
458.00000000	0.16577223
459.00000000	0.18971375
460.00000000	0.19030380
461.00000000	0.16486759
462.00000000	0.17340078
463.00000000	0.15652398
464.00000000	0.15044006
465.00000000	0.14062987
466.00000000	0.12719892
467.00000000	0.13363422
468.00000000	0.15749438
469.00000000	0.14515313
470.00000000	0.13480639
471.00000000	0.13940999
472.00000000	0.12798065
473.00000000	0.17840436
474.00000000	0.17804181
475.00000000	0.16567050
476.00000000	0.13008316
477.00000000	0.13409072
478.00000000	0.15996831
479.00000000	0.16465599
480.00000000	0.17771697
481.00000000	0.17674447
482.00000000	0.18406379
483.00000000	0.18468415
484.00000000	0.16013553
485.00000000	0.14324879
486.00000000	0.13450094
487.00000000	0.11899168
488.00000000	0.13330143
489.00000000	0.16586142
490.00000000	0.16941312
491.00000000	0.15802966
492.00000000	0.16905624
493.00000000	0.14942989
494.00000000	0.13363490
495.00000000	0.13289299
496.00000000	0.14007418
497.00000000	0.13241182
498.00000000	0.12447957
499.00000000	0.12049487
500.00000000	0.12691105
501.00000000	0.14311547
502.00000000	0.13942375
503.00000000	0.16242614
504.00000000	0.16805931
505.00000000	0.19582729
506.00000000	0.17951893
507.00000000	0.15746269
508.00000000	0.14869010
509.00000000	0.12955022
510.00000000	0.12177681
511.00000000	0.14835028
512.00000000	0.17599685
513.00000000	0.18587070
514.00000000	0.16919921
515.00000000	0.14936479
516.00000000	0.15095133
517.00000000	0.15550650
518.00000000	0.14698676
519.00000000	0.14246848
520.00000000	0.14011294
521.00000000	0.11934228
522.00000000	0.11474266
523.00000000	0.12355036
524.00000000	0.12634121
525.00000000	0.11058501
526.00000000	0.12876161
527.00000000	0.16081191
528.00000000	0.16514656
529.00000000	0.15103996
530.00000000	0.14718874
531.00000000	0.15988248
532.00000000	0.15436261
533.00000000	0.15647774
534.00000000	0.20426083
535.00000000	0.57249160
536.00000000	1.00000000
537.00000000	0.82023355
538.00000000	0.63498083
539.00000000	0.51223090
540.00000000	0.38300183
541.00000000	0.27714174
542.00000000	0.22151714
543.00000000	0.21005001
544.00000000	0.14018894
545.00000000	0.13832733
546.00000000	0.25603291
547.00000000	0.27757109
548.00000000	0.17868658
549.00000000	0.14800430
550.00000000	0.12798149
551.00000000	0.12320043
552.00000000	0.10539198
553.00000000	0.11505243
554.00000000	0.11672785
555.00000000	0.13595590
556.00000000	0.12522480
557.00000000	0.11499020
558.00000000	0.10974795
559.00000000	0.10707028
560.00000000	0.10097575
561.00000000	0.11122441
562.00000000	0.11471005
563.00000000	0.11892394
564.00000000	0.16055572
565.00000000	0.18964556
566.00000000	0.16618898
567.00000000	0.14627470
568.00000000	0.14262894
569.00000000	0.13736905
570.00000000	0.13929764
571.00000000	0.15359987
572.00000000	0.15110630
573.00000000	0.14798912
574.00000000	0.14718319
575.00000000	0.16821427
576.00000000	0.17426833
577.00000000	0.18409299
578.00000000	0.16774065
579.00000000	0.16600860
580.00000000	0.16999085
581.00000000	0.15728255
582.00000000	0.14974634
583.00000000	0.13968337
584.00000000	0.13858543
585.00000000	0.13901825
586.00000000	0.14181710
587.00000000	0.14034597
588.00000000	0.13575266
589.00000000	0.13911606
590.00000000	0.14097172
591.00000000	0.13788187
592.00000000	0.13753945
593.00000000	0.13865603
594.00000000	0.15903279
595.00000000	0.17278751
596.00000000	0.16664896
597.00000000	0.19524113
598.00000000	0.22704014
599.00000000	0.24925076
600.00000000	0.22092702
601.00000000	0.23020013
602.00000000	0.23147586
603.00000000	0.20754401
604.00000000	0.18724591
605.00000000	0.17610299
606.00000000	0.17056439
607.00000000	0.17220898
608.00000000	0.18636840
609.00000000	0.24388837
610.00000000	0.22219882
611.00000000	0.20229622
612.00000000	0.20401536
613.00000000	0.19219477
614.00000000	0.18379375
615.00000000	0.17463118
616.00000000	0.18243360
617.00000000	0.22183159
618.00000000	0.19071240
619.00000000	0.16790845
620.00000000	0.16145339
621.00000000	0.14915193
622.00000000	0.14909389
623.00000000	0.14145776
624.00000000	0.13979931
625.00000000	0.14829512
626.00000000	0.22311642
627.00000000	0.21557974
628.00000000	0.16322502
629.00000000	0.14993359
630.00000000	0.13943209
631.00000000	0.12855450
632.00000000	0.12793059
633.00000000	0.13531203
634.00000000	0.14240742
635.00000000	0.13584432
636.00000000	0.13635198
637.00000000	0.12838256
638.00000000	0.13375012
639.00000000	0.14920502
640.00000000	0.13381733
641.00000000	0.12692277
642.00000000	0.14886717
643.00000000	0.16118747
644.00000000	0.15283800
645.00000000	0.13433805
646.00000000	0.12889106
647.00000000	0.12286182
648.00000000	0.12580802
649.00000000	0.13243158
650.00000000	0.11909103
651.00000000	0.11468742
652.00000000	0.10910841
653.00000000	0.10838502
654.00000000	0.11253049
655.00000000	0.12994004
656.00000000	0.15197008
657.00000000	0.14243763
658.00000000	0.17441863
659.00000000	0.16509709
660.00000000	0.13290152
661.00000000	0.12060889
662.00000000	0.11379406
663.00000000	0.10915174
664.00000000	0.12120032
665.00000000	0.12375171
666.00000000	0.15312153
667.00000000	0.20201583
668.00000000	0.16014559
669.00000000	0.13659720
670.00000000	0.12062984
671.00000000	0.11978956
672.00000000	0.12917337
673.00000000	0.13614344
674.00000000	0.12528842
675.00000000	0.13662739
676.00000000	0.14110043
677.00000000	0.15425156
678.00000000	0.13006523
679.00000000	0.12260956
680.00000000	0.11493946
681.00000000	0.11200119
682.00000000	0.11672313
683.00000000	0.14464411
684.00000000	0.16734548
685.00000000	0.18133062
686.00000000	0.19746063
687.00000000	0.14543263
688.00000000	0.12396446
689.00000000	0.12625907
690.00000000	0.11983668
691.00000000	0.10652422
692.00000000	0.10231937
693.00000000	0.10558938
694.00000000	0.09558524
695.00000000	0.10758372
696.00000000	0.12019434
697.00000000	0.13319492
698.00000000	0.13684685
699.00000000	0.13523760
700.00000000	0.14017159
701.00000000	0.12222972
702.00000000	0.11240301
703.00000000	0.09110130
704.00000000	0.08603435
705.00000000	0.08056187
706.00000000	0.07655744
707.00000000	0.07245836
708.00000000	0.06522156
709.00000000	0.06423517
710.00000000	0.05891222
711.00000000	0.06455070
712.00000000	0.06600677
713.00000000	0.06512311
714.00000000	0.06459588
715.00000000	0.05553467
716.00000000	0.05708662
717.00000000	0.05634649
718.00000000	0.05222286
719.00000000	0.05223393
720.00000000	0.06148061
721.00000000	0.05857513
722.00000000	0.07504792
723.00000000	0.07691299
724.00000000	0.06705147
725.00000000	0.06651936
726.00000000	0.06703822
727.00000000	0.06384307
728.00000000	0.05956600
729.00000000	0.06331750
730.00000000	0.05927895
731.00000000	0.04878225
732.00000000	0.04184690
733.00000000	0.04040334
734.00000000	0.04681454
735.00000000	0.04569162
736.00000000	0.04162550
737.00000000	0.04842777
738.00000000	0.06348961
739.00000000	0.06052513
740.00000000	0.05303539
741.00000000	0.07485535
742.00000000	0.06705605
743.00000000	0.05229215
744.00000000	0.04026696
745.00000000	0.04306275
746.00000000	0.04721001
747.00000000	0.03367917
748.00000000	0.03207235
749.00000000	0.04248639
750.00000000	0.03654346
751.00000000	0.03584334
752.00000000	0.03809106
753.00000000	0.04434591
754.00000000	0.07283370
755.00000000	0.10372680
756.00000000	0.08435308
757.00000000	0.07572377
758.00000000	0.05064169
759.00000000	0.05189631
760.00000000	0.06337572
761.00000000	0.04802246
762.00000000	0.04903688
763.00000000	0.05372399
764.00000000	0.06799646
765.00000000	0.09250150
766.00000000	0.11619645
767.00000000	0.11993127
768.00000000	0.07857822
769.00000000	0.05187058
770.00000000	0.03695717
771.00000000	0.05121994
772.00000000	0.05486125
773.00000000	0.05560306
774.00000000	0.04985253
775.00000000	0.03997886
776.00000000	0.04736653
777.00000000	0.03866845
778.00000000	0.03782777
779.00000000	0.04263315
780.00000000	0.03939987
781.00000000	0.05244115
782.00000000	0.05358383
783.00000000	0.04229966
784.00000000	0.04378417
785.00000000	0.03202563
786.00000000	0.03398604
787.00000000	0.03189777
788.00000000	0.03712488
789.00000000	0.01704524
790.00000000	0.01772093
791.00000000	0.02722606
792.00000000	0.03050891
793.00000000	0.02611486
794.00000000	0.03535333
795.00000000	0.02780291
796.00000000	0.03031280
797.00000000	0.04054755
798.00000000	0.03887128
799.00000000	0.02196921
800.00000000	0.02883947
801.00000000	0.03844516
802.00000000	0.03899213
803.00000000	0.03779502
804.00000000	0.03698959
805.00000000	0.02573725
806.00000000	0.03014196
807.00000000	0.02263957
808.00000000	0.03468739
809.00000000	0.06331513
810.00000000	0.03883512
811.00000000	0.02554942
812.00000000	0.03324690
813.00000000	0.01671213
814.00000000	0.03130680
815.00000000	0.02342830
816.00000000	0.02862366
817.00000000	0.01053970
818.00000000	0.02359512
819.00000000	0.01288946
820.00000000	0.00949287
821.00000000	0.01087536
822.00000000	0.01755276
823.00000000	0.00603637
824.00000000	0.02358248
825.00000000	0.02162677
826.00000000	0.03252713
827.00000000	0.03594874
828.00000000	0.01459936
829.00000000	0.00083344
830.00000000	0.01368402
831.00000000	0.02238478
832.00000000	0.03918146
833.00000000	0.05609338
834.00000000	0.02558041
835.00000000	0.04234827
836.00000000	0.02584760
837.00000000	0.02213056
838.00000000	0.01984094
839.00000000	0.01250173
840.00000000	0.00092268
841.00000000	0.01666002
842.00000000	0.00814158
843.00000000	0.01526417
844.00000000	0.00566590
845.00000000	0.02445690
846.00000000	0.00743386
847.00000000	0.01199698
848.00000000	0.04335906
849.00000000	0.02558678
850.00000000	0.05502864
851.00000000	0.15514098
852.00000000	0.44136443
853.00000000	0.62119658
854.00000000	0.49380233
855.00000000	0.33954128
856.00000000	0.20473164
857.00000000	0.12784643
858.00000000	0.09462221
859.00000000	0.09251117
860.00000000	0.06297722
861.00000000	0.04573186
862.00000000	0.04775525
863.00000000	0.06690796
864.00000000	0.06044949
865.00000000	0.03270169
866.00000000	0.03375711
867.00000000	0.03866430
868.00000000	0.03155180
869.00000000	0.01513919
870.00000000	0.01161242
871.00000000	0.02378029
872.00000000	0.01187866
873.00000000	0.03180519
874.00000000	0.00058083
875.00000000	0.03200470
876.00000000	0.07403999
877.00000000	0.08177857
878.00000000	0.06928343
879.00000000	0.03298307
880.00000000	0.02895586
881.00000000	0.00124594
882.00000000	0.00260531
883.00000000	0.01646877
884.00000000	0.03128799
885.00000000	0.01051229
886.00000000	0.00314306
887.00000000	0.00462601
888.00000000	0.00423996
889.00000000	0.00311013
890.00000000	0.00571748
891.00000000	0.00683619
892.00000000	0.03400832
893.00000000	0.09597561
894.00000000	0.31763624
895.00000000	0.45961027
896.00000000	0.41542921
897.00000000	0.28334138
898.00000000	0.16006254
899.00000000	0.10560581
900.00000000	0.07947110
