#LICA Lamps Spectra Database
#Website 1: https://guaix.fis.ucm.es/lamps_spectra
#Website 2: http://carlostapia.es/lamparas/lamps.html
#Latest update: 2018/01/15
#Tester: Carlos Eugenio Tapia Ayuga
#Correct for Electrical Dark: Yes (JAZA2310)
#Correct for Detector Non-linearity: Yes (JAZA2310)
#Correct for Flux: Yes
#Start wavelength (nm): 300
#End wavelength (nm): 900
#Steps (nm):	1
#Locus: D65 sRGB Gamma 1 CIE1931
#XYZ coordinates: 0.0967	0.1012	0.0984
#xyY coordinates: 0.3264	0.3415	0.1012
#sRGB: 28	26	23
#CCT Lindbloom (K):	5772
#CCT McCamy (K):	5769
#CCT Hernández-Andrés (K):	5767
#Melatonin: 0.834
#Chlorophyll a: 0.231
#Chlorophyll b: 1.090
#Beta Carotene: 0.234
#Manufacturer: Unknown
#Luminance manufacturer: Unknown
#Other data: Madrid streetlamp at Facultad de Físicas
#Begin Processed Spectral Data
W	S
300.00000000	0.00000000
301.00000000	0.00000000
302.00000000	0.00000000
303.00000000	0.00000492
304.00000000	0.00000000
305.00000000	0.00000000
306.00000000	0.00000000
307.00000000	0.00000000
308.00000000	0.00000000
309.00000000	0.00000000
310.00000000	0.00000000
311.00000000	0.00000000
312.00000000	0.00000000
313.00000000	0.00000000
314.00000000	0.00000000
315.00000000	0.00000000
316.00000000	0.00000000
317.00000000	0.00551230
318.00000000	0.00000000
319.00000000	0.00000000
320.00000000	0.00000000
321.00000000	0.00000000
322.00000000	0.00000000
323.00000000	0.00026295
324.00000000	0.00000000
325.00000000	0.00000000
326.00000000	0.00000000
327.00000000	0.00000000
328.00000000	0.00000000
329.00000000	0.00000000
330.00000000	0.00000000
331.00000000	0.00000000
332.00000000	0.00062964
333.00000000	0.00000000
334.00000000	0.00398026
335.00000000	0.00000000
336.00000000	0.00009849
337.00000000	0.00166168
338.00000000	0.00040304
339.00000000	0.00271162
340.00000000	0.00311579
341.00000000	0.00380586
342.00000000	0.00242634
343.00000000	0.00236673
344.00000000	0.00819354
345.00000000	0.00377595
346.00000000	0.00621520
347.00000000	0.00315173
348.00000000	0.00850492
349.00000000	0.01181617
350.00000000	0.02489329
351.00000000	0.05973289
352.00000000	0.16605432
353.00000000	0.18102415
354.00000000	0.10265212
355.00000000	0.04931216
356.00000000	0.03638677
357.00000000	0.03266390
358.00000000	0.03217094
359.00000000	0.03350523
360.00000000	0.03329712
361.00000000	0.03313501
362.00000000	0.03330391
363.00000000	0.03494638
364.00000000	0.06530356
365.00000000	0.17487496
366.00000000	0.17375516
367.00000000	0.08940951
368.00000000	0.04291955
369.00000000	0.03594909
370.00000000	0.03598733
371.00000000	0.04095692
372.00000000	0.03753808
373.00000000	0.03807826
374.00000000	0.04328225
375.00000000	0.04266044
376.00000000	0.06067901
377.00000000	0.12468985
378.00000000	0.23265481
379.00000000	0.21945219
380.00000000	0.14483013
381.00000000	0.08168932
382.00000000	0.05172769
383.00000000	0.04310786
384.00000000	0.03887366
385.00000000	0.04057068
386.00000000	0.03949897
387.00000000	0.03924408
388.00000000	0.04306002
389.00000000	0.03991757
390.00000000	0.04012478
391.00000000	0.04439152
392.00000000	0.04201940
393.00000000	0.04168934
394.00000000	0.04266612
395.00000000	0.04641132
396.00000000	0.04772259
397.00000000	0.04645494
398.00000000	0.04854331
399.00000000	0.04744794
400.00000000	0.04707336
401.00000000	0.05057285
402.00000000	0.04844311
403.00000000	0.05118542
404.00000000	0.08472279
405.00000000	0.12898520
406.00000000	0.08888528
407.00000000	0.04900530
408.00000000	0.05734513
409.00000000	0.07870446
410.00000000	0.23466608
411.00000000	0.34654182
412.00000000	0.26103173
413.00000000	0.15316572
414.00000000	0.09652689
415.00000000	0.06099161
416.00000000	0.04540429
417.00000000	0.04369272
418.00000000	0.04302558
419.00000000	0.04363003
420.00000000	0.04320044
421.00000000	0.04327417
422.00000000	0.04277182
423.00000000	0.04813169
424.00000000	0.04600200
425.00000000	0.04770774
426.00000000	0.04519039
427.00000000	0.05125660
428.00000000	0.05168370
429.00000000	0.05186962
430.00000000	0.05247391
431.00000000	0.05579231
432.00000000	0.05615660
433.00000000	0.05628305
434.00000000	0.06680696
435.00000000	0.11566530
436.00000000	0.24734216
437.00000000	0.20670755
438.00000000	0.12380051
439.00000000	0.09642871
440.00000000	0.09809710
441.00000000	0.10316679
442.00000000	0.10813127
443.00000000	0.11158471
444.00000000	0.11300229
445.00000000	0.10578874
446.00000000	0.08954070
447.00000000	0.07024984
448.00000000	0.06288563
449.00000000	0.05991034
450.00000000	0.10095311
451.00000000	0.45960371
452.00000000	0.69034305
453.00000000	0.53766243
454.00000000	0.32549321
455.00000000	0.19254083
456.00000000	0.10122711
457.00000000	0.05377129
458.00000000	0.03681728
459.00000000	0.03116310
460.00000000	0.02711589
461.00000000	0.02650769
462.00000000	0.02515752
463.00000000	0.02324908
464.00000000	0.02353351
465.00000000	0.02431072
466.00000000	0.02126550
467.00000000	0.02394559
468.00000000	0.02465768
469.00000000	0.02345292
470.00000000	0.02338226
471.00000000	0.02324794
472.00000000	0.02261642
473.00000000	0.02206781
474.00000000	0.02118109
475.00000000	0.02104859
476.00000000	0.02098154
477.00000000	0.02112258
478.00000000	0.02051920
479.00000000	0.01950092
480.00000000	0.02044215
481.00000000	0.01952376
482.00000000	0.02079101
483.00000000	0.01956381
484.00000000	0.01936592
485.00000000	0.02046787
486.00000000	0.02131468
487.00000000	0.02137152
488.00000000	0.02027301
489.00000000	0.02142926
490.00000000	0.02126019
491.00000000	0.02262753
492.00000000	0.02219253
493.00000000	0.02198156
494.00000000	0.02149280
495.00000000	0.02052475
496.00000000	0.02269432
497.00000000	0.02328547
498.00000000	0.02983073
499.00000000	0.03126360
500.00000000	0.02772533
501.00000000	0.02318834
502.00000000	0.02134071
503.00000000	0.02061881
504.00000000	0.02109005
505.00000000	0.02187170
506.00000000	0.02139634
507.00000000	0.02088948
508.00000000	0.01974829
509.00000000	0.02105261
510.00000000	0.02075579
511.00000000	0.02265419
512.00000000	0.02325482
513.00000000	0.02098851
514.00000000	0.02171219
515.00000000	0.02323175
516.00000000	0.02428930
517.00000000	0.02490696
518.00000000	0.02427393
519.00000000	0.02386809
520.00000000	0.02615032
521.00000000	0.02748884
522.00000000	0.02825267
523.00000000	0.02899606
524.00000000	0.02735725
525.00000000	0.02626087
526.00000000	0.02462840
527.00000000	0.02327702
528.00000000	0.02357498
529.00000000	0.02500491
530.00000000	0.02650293
531.00000000	0.02807551
532.00000000	0.03370700
533.00000000	0.04578551
534.00000000	0.11368698
535.00000000	0.74651841
536.00000000	1.00000000
537.00000000	0.76079412
538.00000000	0.49266708
539.00000000	0.31020492
540.00000000	0.20255962
541.00000000	0.12133076
542.00000000	0.06708107
543.00000000	0.04254073
544.00000000	0.03256629
545.00000000	0.04298697
546.00000000	0.27515431
547.00000000	0.25243118
548.00000000	0.16028175
549.00000000	0.06624604
550.00000000	0.03304392
551.00000000	0.02600155
552.00000000	0.02460323
553.00000000	0.02658097
554.00000000	0.02681168
555.00000000	0.02446525
556.00000000	0.02263058
557.00000000	0.02146660
558.00000000	0.02166079
559.00000000	0.02124276
560.00000000	0.02072844
561.00000000	0.02122731
562.00000000	0.02066295
563.00000000	0.01972589
564.00000000	0.02071538
565.00000000	0.02096637
566.00000000	0.02266167
567.00000000	0.02510359
568.00000000	0.04067140
569.00000000	0.07569373
570.00000000	0.05878904
571.00000000	0.04543279
572.00000000	0.02801106
573.00000000	0.02317654
574.00000000	0.02251639
575.00000000	0.02428511
576.00000000	0.03840761
577.00000000	0.10314031
578.00000000	0.08882905
579.00000000	0.12384324
580.00000000	0.09207652
581.00000000	0.06522977
582.00000000	0.04199091
583.00000000	0.02995970
584.00000000	0.02768962
585.00000000	0.02994810
586.00000000	0.03599482
587.00000000	0.04946177
588.00000000	0.16854525
589.00000000	0.64351155
590.00000000	0.91087973
591.00000000	0.73912491
592.00000000	0.49400614
593.00000000	0.29189585
594.00000000	0.18027978
595.00000000	0.13413204
596.00000000	0.10601177
597.00000000	0.08991892
598.00000000	0.08015601
599.00000000	0.07078430
600.00000000	0.06191498
601.00000000	0.06118672
602.00000000	0.05425505
603.00000000	0.05068737
604.00000000	0.04573567
605.00000000	0.04229451
606.00000000	0.03960456
607.00000000	0.03673740
608.00000000	0.03620162
609.00000000	0.03431025
610.00000000	0.03574569
611.00000000	0.03584944
612.00000000	0.03287112
613.00000000	0.03144321
614.00000000	0.02959102
615.00000000	0.03144743
616.00000000	0.03861572
617.00000000	0.03490158
618.00000000	0.03144002
619.00000000	0.02865513
620.00000000	0.02705146
621.00000000	0.02645921
622.00000000	0.02573661
623.00000000	0.02460296
624.00000000	0.02401426
625.00000000	0.02327265
626.00000000	0.02252746
627.00000000	0.02351517
628.00000000	0.02356492
629.00000000	0.02379246
630.00000000	0.02237422
631.00000000	0.02261969
632.00000000	0.02246861
633.00000000	0.02221587
634.00000000	0.02177567
635.00000000	0.02008451
636.00000000	0.01988135
637.00000000	0.02110229
638.00000000	0.02068534
639.00000000	0.01971701
640.00000000	0.02236213
641.00000000	0.02176985
642.00000000	0.01938358
643.00000000	0.02248135
644.00000000	0.02083832
645.00000000	0.02155804
646.00000000	0.01995509
647.00000000	0.02141795
648.00000000	0.02143228
649.00000000	0.02051780
650.00000000	0.01789265
651.00000000	0.01757137
652.00000000	0.01970463
653.00000000	0.01838818
654.00000000	0.02247100
655.00000000	0.04630620
656.00000000	0.04498944
657.00000000	0.03615515
658.00000000	0.02770506
659.00000000	0.02311984
660.00000000	0.02082372
661.00000000	0.02064463
662.00000000	0.01906223
663.00000000	0.01996440
664.00000000	0.01954671
665.00000000	0.01907247
666.00000000	0.01829414
667.00000000	0.01790543
668.00000000	0.01842136
669.00000000	0.01898226
670.00000000	0.04530150
671.00000000	0.13935503
672.00000000	0.09124886
673.00000000	0.06942847
674.00000000	0.03756688
675.00000000	0.02401389
676.00000000	0.02156235
677.00000000	0.01792123
678.00000000	0.02069551
679.00000000	0.02019657
680.00000000	0.01703668
681.00000000	0.01984121
682.00000000	0.01943518
683.00000000	0.01728958
684.00000000	0.01767448
685.00000000	0.02646275
686.00000000	0.02358846
687.00000000	0.01986232
688.00000000	0.01648044
689.00000000	0.01588779
690.00000000	0.01774669
691.00000000	0.02322604
692.00000000	0.02135646
693.00000000	0.01998922
694.00000000	0.01761496
695.00000000	0.01491939
696.00000000	0.01571396
697.00000000	0.01635132
698.00000000	0.01700904
699.00000000	0.01504283
700.00000000	0.01559829
701.00000000	0.01553508
702.00000000	0.01569516
703.00000000	0.01350351
704.00000000	0.01568145
705.00000000	0.01689051
706.00000000	0.01931383
707.00000000	0.01658464
708.00000000	0.01536055
709.00000000	0.01595908
710.00000000	0.01689329
711.00000000	0.01579258
712.00000000	0.01549639
713.00000000	0.01635335
714.00000000	0.01544729
715.00000000	0.01429065
716.00000000	0.01395598
717.00000000	0.01333998
718.00000000	0.01561598
719.00000000	0.01779839
720.00000000	0.01316348
721.00000000	0.01580218
722.00000000	0.01763735
723.00000000	0.01802932
724.00000000	0.01395734
725.00000000	0.01458995
726.00000000	0.01645926
727.00000000	0.01558905
728.00000000	0.01516308
729.00000000	0.01303293
730.00000000	0.01393601
731.00000000	0.01465257
732.00000000	0.01064488
733.00000000	0.01474053
734.00000000	0.01513420
735.00000000	0.01272841
736.00000000	0.01652027
737.00000000	0.01580616
738.00000000	0.01403160
739.00000000	0.01683706
740.00000000	0.01515087
741.00000000	0.01445309
742.00000000	0.01300934
743.00000000	0.01365123
744.00000000	0.01233047
745.00000000	0.01234612
746.00000000	0.01453811
747.00000000	0.01604953
748.00000000	0.01408873
749.00000000	0.01399499
750.00000000	0.01195388
751.00000000	0.01025866
752.00000000	0.01184670
753.00000000	0.01611412
754.00000000	0.01790437
755.00000000	0.01179693
756.00000000	0.01032252
757.00000000	0.01601255
758.00000000	0.01566832
759.00000000	0.01545468
760.00000000	0.01363703
761.00000000	0.01350602
762.00000000	0.00736869
763.00000000	0.01429255
764.00000000	0.01290368
765.00000000	0.01119050
766.00000000	0.03232116
767.00000000	0.04970056
768.00000000	0.03268444
769.00000000	0.03025637
770.00000000	0.03559069
771.00000000	0.02981406
772.00000000	0.02068294
773.00000000	0.01966411
774.00000000	0.01050676
775.00000000	0.01482840
776.00000000	0.01294496
777.00000000	0.01238991
778.00000000	0.00915355
779.00000000	0.01526598
780.00000000	0.01050019
781.00000000	0.01303211
782.00000000	0.01473280
783.00000000	0.01454987
784.00000000	0.01448141
785.00000000	0.01294186
786.00000000	0.01863854
787.00000000	0.01149159
788.00000000	0.01551122
789.00000000	0.01079209
790.00000000	0.01305295
791.00000000	0.01103910
792.00000000	0.01331751
793.00000000	0.00506239
794.00000000	0.01329940
795.00000000	0.00897470
796.00000000	0.00827045
797.00000000	0.00376891
798.00000000	0.00889282
799.00000000	0.01509740
800.00000000	0.01147543
801.00000000	0.00997941
802.00000000	0.00410056
803.00000000	0.01111647
804.00000000	0.01746986
805.00000000	0.00304343
806.00000000	0.00554615
807.00000000	0.00342354
808.00000000	0.00878476
809.00000000	0.00795544
810.00000000	0.00641338
811.00000000	0.00888442
812.00000000	0.00583393
813.00000000	0.01918719
814.00000000	0.00882929
815.00000000	0.01005718
816.00000000	0.00842409
817.00000000	0.02348445
818.00000000	0.14972445
819.00000000	0.35391282
820.00000000	0.40879329
821.00000000	0.25518535
822.00000000	0.13445723
823.00000000	0.04780121
824.00000000	0.01862867
825.00000000	0.01397057
826.00000000	0.00824011
827.00000000	0.01077171
828.00000000	0.01331898
829.00000000	0.01466550
830.00000000	0.00904843
831.00000000	0.01567093
832.00000000	0.00792537
833.00000000	0.00746024
834.00000000	0.01364404
835.00000000	0.00413831
836.00000000	0.00335090
837.00000000	0.00443188
838.00000000	0.00322778
839.00000000	0.01681182
840.00000000	0.01371477
841.00000000	0.00755063
842.00000000	0.01346935
843.00000000	0.00476307
844.00000000	0.00005038
845.00000000	0.01372216
846.00000000	0.00694912
847.00000000	0.00466636
848.00000000	0.00441253
849.00000000	0.00526160
850.00000000	0.01055919
851.00000000	0.01257412
852.00000000	0.00667046
853.00000000	0.00765290
854.00000000	0.00300399
855.00000000	0.00751392
856.00000000	0.01340184
857.00000000	0.01837509
858.00000000	0.00398777
859.00000000	0.00241872
860.00000000	0.00863164
861.00000000	0.00076546
862.00000000	0.00691706
863.00000000	0.00000000
864.00000000	0.00000000
865.00000000	0.00668674
866.00000000	0.00266163
867.00000000	0.00119071
868.00000000	0.00223074
869.00000000	0.01102097
870.00000000	0.00685136
871.00000000	0.00107518
872.00000000	0.01245828
873.00000000	0.00783574
874.00000000	0.00000000
875.00000000	0.00052113
876.00000000	0.00082813
877.00000000	0.01092699
878.00000000	0.01768121
879.00000000	0.00563632
880.00000000	0.01260678
881.00000000	0.00000000
882.00000000	0.00000000
883.00000000	0.00324506
884.00000000	0.00035882
885.00000000	0.01316294
886.00000000	0.00000000
887.00000000	0.00111759
888.00000000	0.00336012
889.00000000	0.00009551
890.00000000	0.00000000
891.00000000	0.00000000
892.00000000	0.00000000
893.00000000	0.00862604
894.00000000	0.00295433
895.00000000	0.00085175
896.00000000	0.00000000
897.00000000	0.01514692
898.00000000	0.00480912
899.00000000	0.00650718
900.00000000	0.00198464
