#LICA Lamps Spectra Database
#Website 1: https://guaix.fis.ucm.es/lamps_spectra
#Website 2: http://carlostapia.es/lamparas/lamps.html
#Latest update: 2017/12/15
#Tester: Carlos Eugenio Tapia Ayuga
#Correct for Electrical Dark: Yes (JAZA2310)
#Correct for Detector Non-linearity: Yes (JAZA2310)
#Correct for Flux: Yes
#Start wavelength (nm): 300
#End wavelength (nm): 900
#Steps (nm):	1
#Locus: D65 sRGB Gamma 1 CIE1931
#XYZ coordinates: 0.1768	0.1751	0.1288
#xyY coordinates: 0.3678	0.3642	0.1751
#sRGB: 61	41	28
#CCT Lindbloom (K):	4280
#CCT McCamy (K):	4291
#CCT Hernández-Andrés (K):	4301
#Melatonin: 0.791
#Chlorophyll a: 0.183
#Chlorophyll b: 0.680
#Beta Carotene: 0.188
#Manufacturer: Unknown
#Luminance manufacturer: Unknown
#Other data:
#Begin Processed Spectral Data
W	S
300.00000000	0.00000000
301.00000000	0.00165746
302.00000000	0.00000000
303.00000000	0.00000000
304.00000000	0.00000000
305.00000000	0.00000000
306.00000000	0.00000000
307.00000000	0.00000000
308.00000000	0.00000000
309.00000000	0.00000000
310.00000000	0.00000000
311.00000000	0.00000000
312.00000000	0.00000000
313.00000000	0.00336010
314.00000000	0.00000000
315.00000000	0.00000000
316.00000000	0.00000000
317.00000000	0.00000000
318.00000000	0.00569339
319.00000000	0.00161997
320.00000000	0.00000000
321.00000000	0.00000000
322.00000000	0.00000000
323.00000000	0.00000000
324.00000000	0.00000000
325.00000000	0.00000000
326.00000000	0.00000000
327.00000000	0.00000000
328.00000000	0.00000000
329.00000000	0.00000000
330.00000000	0.00000000
331.00000000	0.00000000
332.00000000	0.00000000
333.00000000	0.00000000
334.00000000	0.00000000
335.00000000	0.00824197
336.00000000	0.00151778
337.00000000	0.00000000
338.00000000	0.00000000
339.00000000	0.00339022
340.00000000	0.00464476
341.00000000	0.00347197
342.00000000	0.00828208
343.00000000	0.00886909
344.00000000	0.01119762
345.00000000	0.01207798
346.00000000	0.00915922
347.00000000	0.01161898
348.00000000	0.01187145
349.00000000	0.01599159
350.00000000	0.01495403
351.00000000	0.01815831
352.00000000	0.01650346
353.00000000	0.02127300
354.00000000	0.02611753
355.00000000	0.03890008
356.00000000	0.04525394
357.00000000	0.07293427
358.00000000	0.08508294
359.00000000	0.07284207
360.00000000	0.05928519
361.00000000	0.07156494
362.00000000	0.08127721
363.00000000	0.10403218
364.00000000	0.14520271
365.00000000	0.19370641
366.00000000	0.17999233
367.00000000	0.10560098
368.00000000	0.07588408
369.00000000	0.06928236
370.00000000	0.06568008
371.00000000	0.06330714
372.00000000	0.06756282
373.00000000	0.06709889
374.00000000	0.05716166
375.00000000	0.06021949
376.00000000	0.06447133
377.00000000	0.06586694
378.00000000	0.05954443
379.00000000	0.06630243
380.00000000	0.07251568
381.00000000	0.06941083
382.00000000	0.06754084
383.00000000	0.08107145
384.00000000	0.08596515
385.00000000	0.06702652
386.00000000	0.05740030
387.00000000	0.07857772
388.00000000	0.08484015
389.00000000	0.08081252
390.00000000	0.12721543
391.00000000	0.22475760
392.00000000	0.21911646
393.00000000	0.16391653
394.00000000	0.12146795
395.00000000	0.10521650
396.00000000	0.09489141
397.00000000	0.08652343
398.00000000	0.07901030
399.00000000	0.09806757
400.00000000	0.11801687
401.00000000	0.15861299
402.00000000	0.26957759
403.00000000	0.31048718
404.00000000	0.27976822
405.00000000	0.25645789
406.00000000	0.22096708
407.00000000	0.15781668
408.00000000	0.18957889
409.00000000	0.19089429
410.00000000	0.15333819
411.00000000	0.10922984
412.00000000	0.09498576
413.00000000	0.12271096
414.00000000	0.15152199
415.00000000	0.16684344
416.00000000	0.18188398
417.00000000	0.16570506
418.00000000	0.12531763
419.00000000	0.08838373
420.00000000	0.08402402
421.00000000	0.10182505
422.00000000	0.11933934
423.00000000	0.14215901
424.00000000	0.18101499
425.00000000	0.18553851
426.00000000	0.15198007
427.00000000	0.10918374
428.00000000	0.10481097
429.00000000	0.11090267
430.00000000	0.10831122
431.00000000	0.14237322
432.00000000	0.18355711
433.00000000	0.16629838
434.00000000	0.12093994
435.00000000	0.16567326
436.00000000	0.26493666
437.00000000	0.25950835
438.00000000	0.17990059
439.00000000	0.13129346
440.00000000	0.11881841
441.00000000	0.12434430
442.00000000	0.11539131
443.00000000	0.10226884
444.00000000	0.08993162
445.00000000	0.08154981
446.00000000	0.08681708
447.00000000	0.07783920
448.00000000	0.07920853
449.00000000	0.09534181
450.00000000	0.10129997
451.00000000	0.09425876
452.00000000	0.08629723
453.00000000	0.07924434
454.00000000	0.08562124
455.00000000	0.08758435
456.00000000	0.09871773
457.00000000	0.10086985
458.00000000	0.09204855
459.00000000	0.08593365
460.00000000	0.07471236
461.00000000	0.07482608
462.00000000	0.05852223
463.00000000	0.04911269
464.00000000	0.04704801
465.00000000	0.04867382
466.00000000	0.06315824
467.00000000	0.08961322
468.00000000	0.09720288
469.00000000	0.09036251
470.00000000	0.08664882
471.00000000	0.11632791
472.00000000	0.14326250
473.00000000	0.26298554
474.00000000	0.39467071
475.00000000	0.36251480
476.00000000	0.23038830
477.00000000	0.11835556
478.00000000	0.10567627
479.00000000	0.09667610
480.00000000	0.07678104
481.00000000	0.06711534
482.00000000	0.07709990
483.00000000	0.11219409
484.00000000	0.13722735
485.00000000	0.12887888
486.00000000	0.10246154
487.00000000	0.08831243
488.00000000	0.08557683
489.00000000	0.07467733
490.00000000	0.06845778
491.00000000	0.07220097
492.00000000	0.07597644
493.00000000	0.07837534
494.00000000	0.08522463
495.00000000	0.08665389
496.00000000	0.08031479
497.00000000	0.07781353
498.00000000	0.11425263
499.00000000	0.13312703
500.00000000	0.11487160
501.00000000	0.08396839
502.00000000	0.09542709
503.00000000	0.10485999
504.00000000	0.10582180
505.00000000	0.09264156
506.00000000	0.12067948
507.00000000	0.21979383
508.00000000	0.43208667
509.00000000	0.56416430
510.00000000	0.47773692
511.00000000	0.30267333
512.00000000	0.18152332
513.00000000	0.09555464
514.00000000	0.06267864
515.00000000	0.06442185
516.00000000	0.07390884
517.00000000	0.06512749
518.00000000	0.05592156
519.00000000	0.04645455
520.00000000	0.05826130
521.00000000	0.09111686
522.00000000	0.10725121
523.00000000	0.09506428
524.00000000	0.07541709
525.00000000	0.05642467
526.00000000	0.07049680
527.00000000	0.05863579
528.00000000	0.06158422
529.00000000	0.06193965
530.00000000	0.06458335
531.00000000	0.06601738
532.00000000	0.06356822
533.00000000	0.07087313
534.00000000	0.11125826
535.00000000	0.20877877
536.00000000	0.22232643
537.00000000	0.17258554
538.00000000	0.12914673
539.00000000	0.12377557
540.00000000	0.12378572
541.00000000	0.09833479
542.00000000	0.07872817
543.00000000	0.08026484
544.00000000	0.10857291
545.00000000	0.16160598
546.00000000	0.33337908
547.00000000	0.33051225
548.00000000	0.33550353
549.00000000	0.24612327
550.00000000	0.16463016
551.00000000	0.14548791
552.00000000	0.20823355
553.00000000	0.19275859
554.00000000	0.16010357
555.00000000	0.10735894
556.00000000	0.09199277
557.00000000	0.09028076
558.00000000	0.08986478
559.00000000	0.09497608
560.00000000	0.08423347
561.00000000	0.07708561
562.00000000	0.06424006
563.00000000	0.05414777
564.00000000	0.05614699
565.00000000	0.06682352
566.00000000	0.08146729
567.00000000	0.18908439
568.00000000	0.28961602
569.00000000	0.42474657
570.00000000	0.39046574
571.00000000	0.40917649
572.00000000	0.35613820
573.00000000	0.24750613
574.00000000	0.14240949
575.00000000	0.07708699
576.00000000	0.08854938
577.00000000	0.14660293
578.00000000	0.13851462
579.00000000	0.16724297
580.00000000	0.13986675
581.00000000	0.11075223
582.00000000	0.06994144
583.00000000	0.04904139
584.00000000	0.04157006
585.00000000	0.04564441
586.00000000	0.05653900
587.00000000	0.08599158
588.00000000	0.26191048
589.00000000	0.56918586
590.00000000	0.85652467
591.00000000	1.00000000
592.00000000	0.84752051
593.00000000	0.65921076
594.00000000	0.47492003
595.00000000	0.36852336
596.00000000	0.30030131
597.00000000	0.26561803
598.00000000	0.24460288
599.00000000	0.22218259
600.00000000	0.19914579
601.00000000	0.17129289
602.00000000	0.14991800
603.00000000	0.13795619
604.00000000	0.12736433
605.00000000	0.11269336
606.00000000	0.09838074
607.00000000	0.08782315
608.00000000	0.08232000
609.00000000	0.07883374
610.00000000	0.07694808
611.00000000	0.07889136
612.00000000	0.07288910
613.00000000	0.06641430
614.00000000	0.06182624
615.00000000	0.07928782
616.00000000	0.09959041
617.00000000	0.10293960
618.00000000	0.10447290
619.00000000	0.10443525
620.00000000	0.11047148
621.00000000	0.16148658
622.00000000	0.14424428
623.00000000	0.13049178
624.00000000	0.16311346
625.00000000	0.15545189
626.00000000	0.18511838
627.00000000	0.14735252
628.00000000	0.13221901
629.00000000	0.09856207
630.00000000	0.12402959
631.00000000	0.17060799
632.00000000	0.12698047
633.00000000	0.11354053
634.00000000	0.07154988
635.00000000	0.06573601
636.00000000	0.05379480
637.00000000	0.05659493
638.00000000	0.07301526
639.00000000	0.06570282
640.00000000	0.05876011
641.00000000	0.06912193
642.00000000	0.07711419
643.00000000	0.05807859
644.00000000	0.05301662
645.00000000	0.05064660
646.00000000	0.06876050
647.00000000	0.06231906
648.00000000	0.05236799
649.00000000	0.04142792
650.00000000	0.03836978
651.00000000	0.03829356
652.00000000	0.03390911
653.00000000	0.04589596
654.00000000	0.04463650
655.00000000	0.04520369
656.00000000	0.04069016
657.00000000	0.03391664
658.00000000	0.04702450
659.00000000	0.07671220
660.00000000	0.07507825
661.00000000	0.06199036
662.00000000	0.04312702
663.00000000	0.03148623
664.00000000	0.02712590
665.00000000	0.02591823
666.00000000	0.03694466
667.00000000	0.04105358
668.00000000	0.03801680
669.00000000	0.03319978
670.00000000	0.03234523
671.00000000	0.05858693
672.00000000	0.05917455
673.00000000	0.05381646
674.00000000	0.05554338
675.00000000	0.04791516
676.00000000	0.04652923
677.00000000	0.03635657
678.00000000	0.04054356
679.00000000	0.03728811
680.00000000	0.03726890
681.00000000	0.03512846
682.00000000	0.04342483
683.00000000	0.05330951
684.00000000	0.05477397
685.00000000	0.04051897
686.00000000	0.03566614
687.00000000	0.02622725
688.00000000	0.02843223
689.00000000	0.02895624
690.00000000	0.02542342
691.00000000	0.03524371
692.00000000	0.03374576
693.00000000	0.02923960
694.00000000	0.02775840
695.00000000	0.03192433
696.00000000	0.02674788
697.00000000	0.02740220
698.00000000	0.02210189
699.00000000	0.03769225
700.00000000	0.04117575
701.00000000	0.04016093
702.00000000	0.03570902
703.00000000	0.03157935
704.00000000	0.02345816
705.00000000	0.02004919
706.00000000	0.02095091
707.00000000	0.02160492
708.00000000	0.02530156
709.00000000	0.02546506
710.00000000	0.02004151
711.00000000	0.01935507
712.00000000	0.01715317
713.00000000	0.01818658
714.00000000	0.02501681
715.00000000	0.02468935
716.00000000	0.02320999
717.00000000	0.03582427
718.00000000	0.03109699
719.00000000	0.02725037
720.00000000	0.02433422
721.00000000	0.02666060
722.00000000	0.03341445
723.00000000	0.02643163
724.00000000	0.02200108
725.00000000	0.01884428
726.00000000	0.01940917
727.00000000	0.01252638
728.00000000	0.01598022
729.00000000	0.01804398
730.00000000	0.01798128
731.00000000	0.01378231
732.00000000	0.01323111
733.00000000	0.01595302
734.00000000	0.01213315
735.00000000	0.01553827
736.00000000	0.01379291
737.00000000	0.00846356
738.00000000	0.01719312
739.00000000	0.02493106
740.00000000	0.02154100
741.00000000	0.01800787
742.00000000	0.01594350
743.00000000	0.02013970
744.00000000	0.01668125
745.00000000	0.02059932
746.00000000	0.01519990
747.00000000	0.01325784
748.00000000	0.01499583
749.00000000	0.01553505
750.00000000	0.01310110
751.00000000	0.01457047
752.00000000	0.01548357
753.00000000	0.01995392
754.00000000	0.01920509
755.00000000	0.01315089
756.00000000	0.01639835
757.00000000	0.02349473
758.00000000	0.02802563
759.00000000	0.03216298
760.00000000	0.02029045
761.00000000	0.02111811
762.00000000	0.01485061
763.00000000	0.01612129
764.00000000	0.01892358
765.00000000	0.02763961
766.00000000	0.03601820
767.00000000	0.05758179
768.00000000	0.04426601
769.00000000	0.03698692
770.00000000	0.04916171
771.00000000	0.04725592
772.00000000	0.03646307
773.00000000	0.02339131
774.00000000	0.02476034
775.00000000	0.02781203
776.00000000	0.01725628
777.00000000	0.02030274
778.00000000	0.01577615
779.00000000	0.02583125
780.00000000	0.02158587
781.00000000	0.02551823
782.00000000	0.03032480
783.00000000	0.02363918
784.00000000	0.02130696
785.00000000	0.02753543
786.00000000	0.03637870
787.00000000	0.02675018
788.00000000	0.02019256
789.00000000	0.01757990
790.00000000	0.01684783
791.00000000	0.01299200
792.00000000	0.01658598
793.00000000	0.00734778
794.00000000	0.01615417
795.00000000	0.01623116
796.00000000	0.01141506
797.00000000	0.00816852
798.00000000	0.02207960
799.00000000	0.01640127
800.00000000	0.01554673
801.00000000	0.02247484
802.00000000	0.02166793
803.00000000	0.01125571
804.00000000	0.01531423
805.00000000	0.02066018
806.00000000	0.01713857
807.00000000	0.01465822
808.00000000	0.01434597
809.00000000	0.02307476
810.00000000	0.01455849
811.00000000	0.01454604
812.00000000	0.01179293
813.00000000	0.01350755
814.00000000	0.01775063
815.00000000	0.01534465
816.00000000	0.03028424
817.00000000	0.03333977
818.00000000	0.20642488
819.00000000	0.53389927
820.00000000	0.71080518
821.00000000	0.57165822
822.00000000	0.29274946
823.00000000	0.10606413
824.00000000	0.06385681
825.00000000	0.02816024
826.00000000	0.01998788
827.00000000	0.02393330
828.00000000	0.01989844
829.00000000	0.01510078
830.00000000	0.01815923
831.00000000	0.01778490
832.00000000	0.02125994
833.00000000	0.02627673
834.00000000	0.01662240
835.00000000	0.01196719
836.00000000	0.01428189
837.00000000	0.00970658
838.00000000	0.01174621
839.00000000	0.00194590
840.00000000	0.00934162
841.00000000	0.01971066
842.00000000	0.03304980
843.00000000	0.01678483
844.00000000	0.02668795
845.00000000	0.02037205
846.00000000	0.02105433
847.00000000	0.01995592
848.00000000	0.03522865
849.00000000	0.02384571
850.00000000	0.00668286
851.00000000	0.00646941
852.00000000	0.01271048
853.00000000	0.00932241
854.00000000	0.01227022
855.00000000	0.01767702
856.00000000	0.01391262
857.00000000	0.02088115
858.00000000	0.00784213
859.00000000	0.00184709
860.00000000	0.01974739
861.00000000	0.01170780
862.00000000	0.00552912
863.00000000	0.01725828
864.00000000	0.01999833
865.00000000	0.02625952
866.00000000	0.01619597
867.00000000	0.00401426
868.00000000	0.02653628
869.00000000	0.02427736
870.00000000	0.02451601
871.00000000	0.03018251
872.00000000	0.00255012
873.00000000	0.01735647
874.00000000	0.01490409
875.00000000	0.02233393
876.00000000	0.02128898
877.00000000	0.03806766
878.00000000	0.01557331
879.00000000	0.02603932
880.00000000	0.02831683
881.00000000	0.02366607
882.00000000	0.03107516
883.00000000	0.02595173
884.00000000	0.03047601
885.00000000	0.02662033
886.00000000	0.00646619
887.00000000	0.01326722
888.00000000	0.02719690
889.00000000	0.01010719
890.00000000	0.01332315
891.00000000	0.03280854
892.00000000	0.03639453
893.00000000	0.01328197
894.00000000	0.04195746
895.00000000	0.03136145
896.00000000	0.03438394
897.00000000	0.03791169
898.00000000	0.04250375
899.00000000	0.01609486
900.00000000	0.03856063
