#LICA Lamps Spectra Database
#Website 1: https://guaix.fis.ucm.es/lamps_spectra
#Website 2: http://carlostapia.es/lamparas/lamps.html
#Latest update: 2017/12/15
#Tester: Carlos Eugenio Tapia Ayuga
#Correct for Electrical Dark: Yes (JAZA2310)
#Correct for Detector Non-linearity: Yes (JAZA2310)
#Correct for Flux: Yes
#Start wavelength (nm): 300
#End wavelength (nm): 900
#Steps (nm):	1
#Locus: D65 sRGB Gamma 1 CIE1931
#XYZ coordinates: 0.1460	0.1398	0.0717
#xyY coordinates: 0.4085	0.3911	0.1398
#sRGB: 57	32	14
#CCT Lindbloom (K):	3436
#CCT McCamy (K):	3445
#CCT Hernández-Andrés (K):	3426
#Melatonin: 0.452
#Chlorophyll a: 0.151
#Chlorophyll b: 0.685
#Beta Carotene: 0.153
#Manufacturer: Unknown
#Luminance manufacturer: Unknown
#Other data:
#Begin Processed Spectral Data
W	S
300.00000000	0.00000000
301.00000000	0.00000000
302.00000000	0.00000000
303.00000000	0.00000000
304.00000000	0.01459127
305.00000000	0.00000000
306.00000000	0.00565872
307.00000000	0.00000000
308.00000000	0.00757317
309.00000000	0.00000000
310.00000000	0.00000000
311.00000000	0.00000000
312.00000000	0.00000000
313.00000000	0.00000000
314.00000000	0.00000000
315.00000000	0.00000000
316.00000000	0.00000000
317.00000000	0.00000000
318.00000000	0.00202762
319.00000000	0.00382797
320.00000000	0.00000000
321.00000000	0.00000000
322.00000000	0.00000000
323.00000000	0.00000000
324.00000000	0.00000000
325.00000000	0.00000000
326.00000000	0.00000000
327.00000000	0.00531922
328.00000000	0.00000000
329.00000000	0.00000000
330.00000000	0.00000000
331.00000000	0.00000000
332.00000000	0.00000000
333.00000000	0.00000000
334.00000000	0.00061025
335.00000000	0.00099089
336.00000000	0.00540433
337.00000000	0.00000000
338.00000000	0.00147068
339.00000000	0.00086627
340.00000000	0.00000000
341.00000000	0.00000000
342.00000000	0.00000000
343.00000000	0.00097500
344.00000000	0.00000000
345.00000000	0.00668725
346.00000000	0.00000000
347.00000000	0.00000000
348.00000000	0.00953695
349.00000000	0.00398462
350.00000000	0.01290478
351.00000000	0.05793321
352.00000000	0.12418522
353.00000000	0.11508035
354.00000000	0.06218462
355.00000000	0.03133688
356.00000000	0.02790615
357.00000000	0.02083475
358.00000000	0.01913002
359.00000000	0.02245693
360.00000000	0.01835868
361.00000000	0.01514587
362.00000000	0.02727182
363.00000000	0.02159557
364.00000000	0.03974592
365.00000000	0.08770542
366.00000000	0.06575165
367.00000000	0.03294831
368.00000000	0.02657693
369.00000000	0.02337909
370.00000000	0.02159510
371.00000000	0.02307162
372.00000000	0.02618904
373.00000000	0.02843784
374.00000000	0.02825944
375.00000000	0.03357656
376.00000000	0.05271079
377.00000000	0.10259807
378.00000000	0.13798831
379.00000000	0.10892759
380.00000000	0.06916484
381.00000000	0.03970407
382.00000000	0.02213053
383.00000000	0.02148077
384.00000000	0.02251141
385.00000000	0.01889551
386.00000000	0.01662543
387.00000000	0.01795722
388.00000000	0.02203864
389.00000000	0.02217238
390.00000000	0.02101525
391.00000000	0.02396058
392.00000000	0.01873020
393.00000000	0.02120978
394.00000000	0.02098976
395.00000000	0.02381187
396.00000000	0.02431340
397.00000000	0.02397788
398.00000000	0.02543500
399.00000000	0.02465897
400.00000000	0.02957931
401.00000000	0.02839108
402.00000000	0.03126626
403.00000000	0.02850588
404.00000000	0.04664291
405.00000000	0.05048023
406.00000000	0.03495956
407.00000000	0.03037404
408.00000000	0.03397965
409.00000000	0.05877634
410.00000000	0.18508037
411.00000000	0.20932877
412.00000000	0.15497521
413.00000000	0.09813343
414.00000000	0.05817404
415.00000000	0.03613750
416.00000000	0.02661691
417.00000000	0.02574690
418.00000000	0.02543336
419.00000000	0.02553460
420.00000000	0.02900086
421.00000000	0.02719653
422.00000000	0.02480417
423.00000000	0.02908012
424.00000000	0.02297880
425.00000000	0.02817270
426.00000000	0.02792416
427.00000000	0.02648388
428.00000000	0.02928611
429.00000000	0.02717128
430.00000000	0.03114305
431.00000000	0.02418176
432.00000000	0.02899244
433.00000000	0.02905207
434.00000000	0.03322140
435.00000000	0.06443085
436.00000000	0.12128175
437.00000000	0.07176015
438.00000000	0.05823109
439.00000000	0.04763777
440.00000000	0.04539552
441.00000000	0.04603640
442.00000000	0.04878065
443.00000000	0.04817484
444.00000000	0.04644487
445.00000000	0.04825855
446.00000000	0.04838363
447.00000000	0.04212706
448.00000000	0.04639694
449.00000000	0.05880557
450.00000000	0.12485065
451.00000000	0.45855473
452.00000000	0.51165950
453.00000000	0.38286187
454.00000000	0.27834794
455.00000000	0.15584663
456.00000000	0.08658663
457.00000000	0.05001424
458.00000000	0.03705685
459.00000000	0.03077503
460.00000000	0.03027350
461.00000000	0.02878038
462.00000000	0.02662533
463.00000000	0.02262060
464.00000000	0.02374266
465.00000000	0.02581915
466.00000000	0.03219146
467.00000000	0.04031549
468.00000000	0.03728762
469.00000000	0.03310029
470.00000000	0.03037076
471.00000000	0.02452477
472.00000000	0.02297132
473.00000000	0.02261195
474.00000000	0.02198557
475.00000000	0.02521708
476.00000000	0.02392971
477.00000000	0.02059369
478.00000000	0.01965657
479.00000000	0.02136223
480.00000000	0.01925628
481.00000000	0.01746224
482.00000000	0.02041084
483.00000000	0.02140384
484.00000000	0.02112771
485.00000000	0.02016791
486.00000000	0.02154343
487.00000000	0.02099888
488.00000000	0.02067786
489.00000000	0.01884711
490.00000000	0.02236738
491.00000000	0.02218969
492.00000000	0.02453856
493.00000000	0.02233652
494.00000000	0.02145248
495.00000000	0.02084527
496.00000000	0.02651357
497.00000000	0.03979526
498.00000000	0.08561982
499.00000000	0.07453760
500.00000000	0.05226585
501.00000000	0.03892314
502.00000000	0.02669875
503.00000000	0.02387266
504.00000000	0.02418714
505.00000000	0.01935518
506.00000000	0.02074707
507.00000000	0.02051840
508.00000000	0.02294841
509.00000000	0.02238679
510.00000000	0.02329071
511.00000000	0.02430405
512.00000000	0.02486099
513.00000000	0.02358648
514.00000000	0.02308659
515.00000000	0.03792359
516.00000000	0.03360134
517.00000000	0.02798331
518.00000000	0.02745303
519.00000000	0.02747337
520.00000000	0.02840628
521.00000000	0.02922766
522.00000000	0.03005372
523.00000000	0.03019798
524.00000000	0.02891599
525.00000000	0.02769385
526.00000000	0.02628537
527.00000000	0.02666859
528.00000000	0.02965226
529.00000000	0.02907241
530.00000000	0.03033639
531.00000000	0.03629275
532.00000000	0.04389936
533.00000000	0.06538924
534.00000000	0.21765808
535.00000000	0.87691509
536.00000000	0.89428919
537.00000000	0.66628306
538.00000000	0.54507613
539.00000000	0.35689308
540.00000000	0.21895247
541.00000000	0.13808932
542.00000000	0.08052506
543.00000000	0.05085129
544.00000000	0.03614802
545.00000000	0.04338754
546.00000000	0.19397948
547.00000000	0.11675772
548.00000000	0.07646959
549.00000000	0.05592196
550.00000000	0.03452093
551.00000000	0.02828119
552.00000000	0.02854236
553.00000000	0.03473510
554.00000000	0.03020195
555.00000000	0.02877967
556.00000000	0.02651871
557.00000000	0.02397484
558.00000000	0.02775581
559.00000000	0.02479739
560.00000000	0.02549041
561.00000000	0.02377516
562.00000000	0.02527577
563.00000000	0.02577075
564.00000000	0.02596388
565.00000000	0.02929920
566.00000000	0.03746813
567.00000000	0.06055612
568.00000000	0.21131547
569.00000000	0.36290672
570.00000000	0.21383315
571.00000000	0.14941680
572.00000000	0.09808199
573.00000000	0.05304631
574.00000000	0.03797503
575.00000000	0.03576948
576.00000000	0.04626670
577.00000000	0.07028994
578.00000000	0.05698674
579.00000000	0.08426862
580.00000000	0.06342967
581.00000000	0.05186018
582.00000000	0.05228970
583.00000000	0.05085433
584.00000000	0.05575292
585.00000000	0.07119339
586.00000000	0.10076686
587.00000000	0.18343948
588.00000000	0.53173365
589.00000000	0.60880928
590.00000000	0.91357447
591.00000000	1.00000000
592.00000000	0.84254428
593.00000000	0.69455209
594.00000000	0.55745297
595.00000000	0.43045989
596.00000000	0.34840968
597.00000000	0.29088283
598.00000000	0.24710365
599.00000000	0.21264726
600.00000000	0.19331663
601.00000000	0.17119241
602.00000000	0.15242924
603.00000000	0.14010688
604.00000000	0.12780931
605.00000000	0.11715356
606.00000000	0.10588570
607.00000000	0.09642076
608.00000000	0.09084271
609.00000000	0.08257910
610.00000000	0.09995530
611.00000000	0.09420469
612.00000000	0.07908501
613.00000000	0.07380063
614.00000000	0.06870937
615.00000000	0.09047633
616.00000000	0.13451433
617.00000000	0.09440670
618.00000000	0.08062981
619.00000000	0.06826419
620.00000000	0.06018132
621.00000000	0.05300376
622.00000000	0.04708574
623.00000000	0.04811288
624.00000000	0.04510887
625.00000000	0.04790689
626.00000000	0.04711333
627.00000000	0.04557813
628.00000000	0.04224724
629.00000000	0.04285398
630.00000000	0.03907184
631.00000000	0.03994279
632.00000000	0.04345137
633.00000000	0.03726167
634.00000000	0.03998838
635.00000000	0.03767926
636.00000000	0.03560207
637.00000000	0.03408019
638.00000000	0.03248349
639.00000000	0.03478280
640.00000000	0.03566169
641.00000000	0.03176662
642.00000000	0.03521207
643.00000000	0.03519734
644.00000000	0.03146290
645.00000000	0.03451415
646.00000000	0.03410521
647.00000000	0.02950893
648.00000000	0.02915658
649.00000000	0.03133804
650.00000000	0.02760477
651.00000000	0.03138200
652.00000000	0.02866464
653.00000000	0.02753416
654.00000000	0.03776834
655.00000000	0.08139203
656.00000000	0.06205228
657.00000000	0.05056978
658.00000000	0.04918701
659.00000000	0.03595489
660.00000000	0.02664497
661.00000000	0.02392574
662.00000000	0.02686405
663.00000000	0.02335547
664.00000000	0.02587316
665.00000000	0.02571884
666.00000000	0.02527413
667.00000000	0.02628981
668.00000000	0.02443264
669.00000000	0.02870579
670.00000000	0.10167124
671.00000000	0.21615678
672.00000000	0.11653139
673.00000000	0.09222360
674.00000000	0.07318827
675.00000000	0.03837157
676.00000000	0.03298408
677.00000000	0.02498538
678.00000000	0.02740369
679.00000000	0.02682197
680.00000000	0.02845444
681.00000000	0.02169400
682.00000000	0.01632475
683.00000000	0.01934560
684.00000000	0.01862569
685.00000000	0.03166071
686.00000000	0.02889050
687.00000000	0.01985648
688.00000000	0.02186375
689.00000000	0.01841456
690.00000000	0.02350114
691.00000000	0.02251959
692.00000000	0.02365873
693.00000000	0.01763854
694.00000000	0.01682487
695.00000000	0.01319237
696.00000000	0.01961027
697.00000000	0.01894508
698.00000000	0.01777812
699.00000000	0.01376030
700.00000000	0.01528031
701.00000000	0.01586554
702.00000000	0.01443204
703.00000000	0.01842227
704.00000000	0.01515241
705.00000000	0.01443414
706.00000000	0.01035600
707.00000000	0.01573578
708.00000000	0.01654664
709.00000000	0.01671124
710.00000000	0.01854713
711.00000000	0.01297890
712.00000000	0.01951955
713.00000000	0.01817210
714.00000000	0.01271609
715.00000000	0.01673205
716.00000000	0.01588004
717.00000000	0.01429105
718.00000000	0.01804210
719.00000000	0.01379233
720.00000000	0.01770377
721.00000000	0.01130527
722.00000000	0.01341589
723.00000000	0.00907354
724.00000000	0.01765210
725.00000000	0.01263286
726.00000000	0.01099477
727.00000000	0.01245189
728.00000000	0.01340140
729.00000000	0.01804514
730.00000000	0.00970039
731.00000000	0.01615336
732.00000000	0.01693593
733.00000000	0.01123443
734.00000000	0.00940532
735.00000000	0.01790555
736.00000000	0.01093024
737.00000000	0.01197327
738.00000000	0.00918577
739.00000000	0.00933494
740.00000000	0.01767431
741.00000000	0.01550196
742.00000000	0.00928187
743.00000000	0.01130247
744.00000000	0.01780735
745.00000000	0.01313251
746.00000000	0.01428076
747.00000000	0.00567999
748.00000000	0.01403433
749.00000000	0.01262093
750.00000000	0.01031859
751.00000000	0.01036138
752.00000000	0.01359125
753.00000000	0.01060968
754.00000000	0.01836125
755.00000000	0.01312807
756.00000000	0.02091073
757.00000000	0.00996880
758.00000000	0.01504182
759.00000000	0.01374580
760.00000000	0.00869944
761.00000000	0.00771065
762.00000000	0.01256482
763.00000000	0.00279242
764.00000000	0.01366186
765.00000000	0.01773487
766.00000000	0.05323593
767.00000000	0.05423922
768.00000000	0.03383796
769.00000000	0.02618156
770.00000000	0.05023963
771.00000000	0.03655065
772.00000000	0.02330099
773.00000000	0.01678208
774.00000000	0.00850725
775.00000000	0.01935659
776.00000000	0.01906970
777.00000000	0.01106398
778.00000000	0.01440585
779.00000000	0.00529303
780.00000000	0.01457373
781.00000000	0.00615346
782.00000000	0.01434834
783.00000000	0.01743068
784.00000000	0.00800525
785.00000000	0.00084780
786.00000000	0.00793090
787.00000000	0.01737223
788.00000000	0.01152436
789.00000000	0.00678218
790.00000000	0.00839174
791.00000000	0.00963913
792.00000000	0.01258095
793.00000000	0.01050283
794.00000000	0.00000000
795.00000000	0.01615523
796.00000000	0.00593859
797.00000000	0.00862252
798.00000000	0.00584577
799.00000000	0.01063002
800.00000000	0.01253606
801.00000000	0.00921874
802.00000000	0.01464832
803.00000000	0.01112711
804.00000000	0.00454343
805.00000000	0.03542087
806.00000000	0.00000000
807.00000000	0.02065191
808.00000000	0.01368150
809.00000000	0.00000000
810.00000000	0.00134933
811.00000000	0.00000000
812.00000000	0.00768119
813.00000000	0.00718948
814.00000000	0.01011073
815.00000000	0.01949500
816.00000000	0.02817340
817.00000000	0.05057562
818.00000000	0.52769198
819.00000000	0.91623104
820.00000000	0.70244347
821.00000000	0.43966086
822.00000000	0.32262210
823.00000000	0.18230829
824.00000000	0.06813232
825.00000000	0.03860866
826.00000000	0.01849172
827.00000000	0.02009847
828.00000000	0.01259030
829.00000000	0.02254134
830.00000000	0.01669043
831.00000000	0.00070681
832.00000000	0.02024484
833.00000000	0.00980864
834.00000000	0.01296160
835.00000000	0.00693930
836.00000000	0.00000000
837.00000000	0.00710321
838.00000000	0.00007201
839.00000000	0.00462270
840.00000000	0.01165155
841.00000000	0.00898796
842.00000000	0.00000000
843.00000000	0.01629950
844.00000000	0.00000000
845.00000000	0.01249584
846.00000000	0.01947840
847.00000000	0.00298882
848.00000000	0.00000000
849.00000000	0.00366220
850.00000000	0.00000000
851.00000000	0.00235449
852.00000000	0.00578287
853.00000000	0.01646831
854.00000000	0.00015525
855.00000000	0.02421987
856.00000000	0.01052598
857.00000000	0.00000000
858.00000000	0.02273821
859.00000000	0.01639349
860.00000000	0.01069923
861.00000000	0.01649777
862.00000000	0.00905858
863.00000000	0.00572676
864.00000000	0.00000000
865.00000000	0.00922037
866.00000000	0.00046318
867.00000000	0.02444457
868.00000000	0.00000000
869.00000000	0.00000000
870.00000000	0.00000000
871.00000000	0.00000000
872.00000000	0.00860077
873.00000000	0.01660602
874.00000000	0.00000000
875.00000000	0.01956889
876.00000000	0.00000000
877.00000000	0.00000000
878.00000000	0.00444991
879.00000000	0.00000000
880.00000000	0.00000000
881.00000000	0.01048249
882.00000000	0.01417017
883.00000000	0.00000000
884.00000000	0.01706500
885.00000000	0.00341950
886.00000000	0.00934546
887.00000000	0.00000000
888.00000000	0.00000000
889.00000000	0.00681164
890.00000000	0.00144239
891.00000000	0.02381328
892.00000000	0.00000000
893.00000000	0.00000000
894.00000000	0.00000000
895.00000000	0.01632615
896.00000000	0.00960897
897.00000000	0.01691746
898.00000000	0.00000000
899.00000000	0.00000000
900.00000000	0.00000000
