#LICA Lamps Spectra Database
#Website 1: https://guaix.fis.ucm.es/lamps_spectra
#Website 2: http://carlostapia.es/lamparas/lamps.html
#Latest update: 2018/04/28
#Tester: Carlos Eugenio Tapia Ayuga
#Correct for Electrical Dark: Yes (JAZA2310)
#Correct for Detector Non-linearity: Yes (JAZA2310)
#Correct for Flux: Yes
#Start wavelength (nm): 300
#End wavelength (nm): 900
#Steps (nm):	1
#Locus: D65 sRGB Gamma 1 CIE1931
#XYZ coordinates: 0.1083	0.0963	0.0372
#xyY coordinates: 0.4478	0.3983	0.0963
#sRGB: 47	20	7
#CCT Lindbloom (K):	2776
#CCT McCamy (K):	2776
#CCT Hernández-Andrés (K):	2708
#Melatonin: 0.343
#Chlorophyll a: 0.087
#Chlorophyll b: 0.387
#Beta Carotene: 0.086
#Manufacturer: Philips
#Luminance manufacturer: 1220 lm
#Other data: Master PL Electronics PLE-R 20W/827. 2700K. 60 lm/W.
#Begin Processed Spectral Data
W	S
300.00000000	0.00000000
301.00000000	0.00000000
302.00000000	0.00000000
303.00000000	0.00000000
304.00000000	0.00000000
305.00000000	0.00000000
306.00000000	0.00000000
307.00000000	0.00000000
308.00000000	0.00000000
309.00000000	0.00000000
310.00000000	0.00000000
311.00000000	0.00000000
312.00000000	0.00000000
313.00000000	0.01429252
314.00000000	0.03053043
315.00000000	0.00801899
316.00000000	0.00000000
317.00000000	0.00000000
318.00000000	0.00000000
319.00000000	0.00000000
320.00000000	0.00000000
321.00000000	0.00000000
322.00000000	0.00000000
323.00000000	0.00000000
324.00000000	0.00000000
325.00000000	0.00000000
326.00000000	0.00134357
327.00000000	0.00000000
328.00000000	0.00000000
329.00000000	0.00000000
330.00000000	0.00000000
331.00000000	0.00000000
332.00000000	0.00000000
333.00000000	0.00000000
334.00000000	0.00149313
335.00000000	0.01036720
336.00000000	0.00305982
337.00000000	0.00005457
338.00000000	0.00000000
339.00000000	0.00000000
340.00000000	0.00000000
341.00000000	0.00000000
342.00000000	0.00000000
343.00000000	0.00026256
344.00000000	0.00000000
345.00000000	0.00000099
346.00000000	0.00002641
347.00000000	0.00051567
348.00000000	0.00000000
349.00000000	0.00009864
350.00000000	0.00052300
351.00000000	0.00167640
352.00000000	0.00002526
353.00000000	0.00120624
354.00000000	0.00178426
355.00000000	0.00043711
356.00000000	0.00041309
357.00000000	0.00013838
358.00000000	0.00017751
359.00000000	0.00078575
360.00000000	0.00163295
361.00000000	0.00162490
362.00000000	0.00159031
363.00000000	0.00312334
364.00000000	0.00929819
365.00000000	0.08387677
366.00000000	0.19819971
367.00000000	0.12223502
368.00000000	0.03451453
369.00000000	0.00651434
370.00000000	0.00171111
371.00000000	0.00317600
372.00000000	0.00059658
373.00000000	0.00044194
374.00000000	0.00103140
375.00000000	0.00134193
376.00000000	0.00031027
377.00000000	0.00189396
378.00000000	0.00084112
379.00000000	0.00100154
380.00000000	0.00233985
381.00000000	0.00196452
382.00000000	0.00203040
383.00000000	0.00140603
384.00000000	0.00096290
385.00000000	0.00147350
386.00000000	0.00046047
387.00000000	0.00109151
388.00000000	0.00058918
389.00000000	0.00006711
390.00000000	0.00042275
391.00000000	0.00202462
392.00000000	0.00128900
393.00000000	0.00073224
394.00000000	0.00029639
395.00000000	0.00000000
396.00000000	0.00004437
397.00000000	0.00000615
398.00000000	0.00023666
399.00000000	0.00083053
400.00000000	0.00117429
401.00000000	0.00114068
402.00000000	0.00121189
403.00000000	0.00272413
404.00000000	0.03964904
405.00000000	0.29963917
406.00000000	0.21179557
407.00000000	0.06515230
408.00000000	0.04652926
409.00000000	0.03493843
410.00000000	0.01041229
411.00000000	0.00252073
412.00000000	0.00078048
413.00000000	0.00104503
414.00000000	0.00127847
415.00000000	0.00149501
416.00000000	0.00174031
417.00000000	0.00158856
418.00000000	0.00224954
419.00000000	0.00122149
420.00000000	0.00190206
421.00000000	0.00133511
422.00000000	0.00062721
423.00000000	0.00009392
424.00000000	0.00005354
425.00000000	0.00020426
426.00000000	0.00082391
427.00000000	0.00196344
428.00000000	0.00187904
429.00000000	0.00128577
430.00000000	0.00144716
431.00000000	0.00123227
432.00000000	0.00175944
433.00000000	0.00303547
434.00000000	0.01071034
435.00000000	0.08850396
436.00000000	0.76421885
437.00000000	0.66212939
438.00000000	0.23090735
439.00000000	0.05889171
440.00000000	0.00853568
441.00000000	0.00256018
442.00000000	0.00095381
443.00000000	0.00154465
444.00000000	0.00001875
445.00000000	0.00006349
446.00000000	0.00029598
447.00000000	0.00001393
448.00000000	0.00009660
449.00000000	0.00000000
450.00000000	0.00015800
451.00000000	0.00000000
452.00000000	0.00002909
453.00000000	0.00000000
454.00000000	0.00051631
455.00000000	0.00000000
456.00000000	0.00006552
457.00000000	0.00000000
458.00000000	0.00001758
459.00000000	0.00000000
460.00000000	0.00030078
461.00000000	0.00000282
462.00000000	0.00021628
463.00000000	0.00012443
464.00000000	0.00102149
465.00000000	0.00115200
466.00000000	0.00103968
467.00000000	0.00245761
468.00000000	0.00264776
469.00000000	0.00106292
470.00000000	0.00048029
471.00000000	0.00100384
472.00000000	0.00034682
473.00000000	0.00141454
474.00000000	0.00179395
475.00000000	0.00168351
476.00000000	0.00145796
477.00000000	0.00132590
478.00000000	0.00189916
479.00000000	0.00260359
480.00000000	0.00484792
481.00000000	0.00691758
482.00000000	0.01183704
483.00000000	0.02012919
484.00000000	0.03255308
485.00000000	0.04851419
486.00000000	0.06857272
487.00000000	0.08194505
488.00000000	0.08343546
489.00000000	0.07849509
490.00000000	0.06782595
491.00000000	0.06072589
492.00000000	0.05941448
493.00000000	0.05088443
494.00000000	0.04442352
495.00000000	0.03896484
496.00000000	0.03498218
497.00000000	0.03055353
498.00000000	0.02660503
499.00000000	0.02271630
500.00000000	0.01888531
501.00000000	0.01540971
502.00000000	0.01212177
503.00000000	0.00957207
504.00000000	0.00714394
505.00000000	0.00578603
506.00000000	0.00465511
507.00000000	0.00345434
508.00000000	0.00299294
509.00000000	0.00313668
510.00000000	0.00286125
511.00000000	0.00233812
512.00000000	0.00226001
513.00000000	0.00236337
514.00000000	0.00197952
515.00000000	0.00180331
516.00000000	0.00144158
517.00000000	0.00124945
518.00000000	0.00097014
519.00000000	0.00097111
520.00000000	0.00133914
521.00000000	0.00103338
522.00000000	0.00068358
523.00000000	0.00068117
524.00000000	0.00043369
525.00000000	0.00078674
526.00000000	0.00107230
527.00000000	0.00145332
528.00000000	0.00200617
529.00000000	0.00208229
530.00000000	0.00255294
531.00000000	0.00289465
532.00000000	0.00449887
533.00000000	0.01159756
534.00000000	0.01868260
535.00000000	0.01627763
536.00000000	0.01868738
537.00000000	0.02880316
538.00000000	0.04992571
539.00000000	0.06995258
540.00000000	0.11787558
541.00000000	0.23851065
542.00000000	0.37948507
543.00000000	0.36881568
544.00000000	0.35325232
545.00000000	0.36815357
546.00000000	0.64776057
547.00000000	0.58345424
548.00000000	0.38653758
549.00000000	0.28543017
550.00000000	0.19780471
551.00000000	0.14608995
552.00000000	0.10950167
553.00000000	0.08310463
554.00000000	0.06353141
555.00000000	0.04559197
556.00000000	0.03296942
557.00000000	0.02480984
558.00000000	0.01940474
559.00000000	0.01505489
560.00000000	0.01250796
561.00000000	0.01114799
562.00000000	0.01058779
563.00000000	0.00993078
564.00000000	0.00922815
565.00000000	0.00854045
566.00000000	0.00740027
567.00000000	0.00741699
568.00000000	0.00701315
569.00000000	0.00720579
570.00000000	0.00643252
571.00000000	0.00537381
572.00000000	0.00427706
573.00000000	0.00423916
574.00000000	0.00417388
575.00000000	0.00557296
576.00000000	0.01960170
577.00000000	0.12075688
578.00000000	0.08789587
579.00000000	0.13645858
580.00000000	0.12009939
581.00000000	0.08958854
582.00000000	0.08488759
583.00000000	0.09262521
584.00000000	0.09414634
585.00000000	0.09352769
586.00000000	0.09075538
587.00000000	0.12692866
588.00000000	0.13639050
589.00000000	0.09190178
590.00000000	0.07390879
591.00000000	0.06785052
592.00000000	0.07864504
593.00000000	0.11704027
594.00000000	0.11201705
595.00000000	0.08164861
596.00000000	0.06558163
597.00000000	0.05325018
598.00000000	0.05334882
599.00000000	0.07054931
600.00000000	0.08039964
601.00000000	0.06624285
602.00000000	0.05043658
603.00000000	0.03946333
604.00000000	0.03486354
605.00000000	0.03496221
606.00000000	0.03869013
607.00000000	0.04786319
608.00000000	0.06770655
609.00000000	0.11267064
610.00000000	0.27191307
611.00000000	0.86718118
612.00000000	1.00000000
613.00000000	0.70299480
614.00000000	0.56798338
615.00000000	0.42582515
616.00000000	0.27750586
617.00000000	0.18310589
618.00000000	0.12763526
619.00000000	0.09415259
620.00000000	0.08218661
621.00000000	0.08060967
622.00000000	0.08124959
623.00000000	0.08718087
624.00000000	0.09308573
625.00000000	0.09793889
626.00000000	0.10225331
627.00000000	0.10329684
628.00000000	0.09945910
629.00000000	0.09644371
630.00000000	0.11564381
631.00000000	0.16150638
632.00000000	0.12996514
633.00000000	0.07896950
634.00000000	0.05470857
635.00000000	0.03485768
636.00000000	0.02398042
637.00000000	0.01978385
638.00000000	0.01780255
639.00000000	0.01502137
640.00000000	0.01485054
641.00000000	0.01415589
642.00000000	0.01398553
643.00000000	0.01433346
644.00000000	0.01452390
645.00000000	0.01431689
646.00000000	0.01408298
647.00000000	0.01378573
648.00000000	0.01362656
649.00000000	0.01713198
650.00000000	0.03625444
651.00000000	0.04594015
652.00000000	0.03424941
653.00000000	0.03229448
654.00000000	0.02647772
655.00000000	0.02047563
656.00000000	0.01714369
657.00000000	0.01758449
658.00000000	0.01919920
659.00000000	0.01549603
660.00000000	0.01243146
661.00000000	0.01298682
662.00000000	0.02446033
663.00000000	0.02878164
664.00000000	0.02103205
665.00000000	0.01648226
666.00000000	0.01389715
667.00000000	0.01244608
668.00000000	0.01095688
669.00000000	0.01080622
670.00000000	0.01000047
671.00000000	0.00978454
672.00000000	0.01012445
673.00000000	0.00835306
674.00000000	0.00827464
675.00000000	0.00845943
676.00000000	0.00818961
677.00000000	0.00701038
678.00000000	0.00745979
679.00000000	0.00844016
680.00000000	0.00859050
681.00000000	0.00966148
682.00000000	0.00936065
683.00000000	0.00883091
684.00000000	0.00920916
685.00000000	0.00883945
686.00000000	0.01228719
687.00000000	0.02511974
688.00000000	0.02923887
689.00000000	0.02156983
690.00000000	0.01669333
691.00000000	0.01324876
692.00000000	0.00820800
693.00000000	0.01605665
694.00000000	0.02096985
695.00000000	0.01309344
696.00000000	0.02027300
697.00000000	0.01811446
698.00000000	0.00800064
699.00000000	0.00559596
700.00000000	0.00378839
701.00000000	0.00400481
702.00000000	0.00478410
703.00000000	0.00701437
704.00000000	0.01105812
705.00000000	0.01840411
706.00000000	0.05337573
707.00000000	0.08340926
708.00000000	0.07499116
709.00000000	0.09416823
710.00000000	0.06355090
711.00000000	0.05103926
712.00000000	0.07588501
713.00000000	0.06106989
714.00000000	0.03340943
715.00000000	0.02158794
716.00000000	0.00928722
717.00000000	0.00382474
718.00000000	0.00345636
719.00000000	0.00202755
720.00000000	0.00115066
721.00000000	0.00137812
722.00000000	0.00023374
723.00000000	0.00187135
724.00000000	0.00001509
725.00000000	0.00077068
726.00000000	0.00133175
727.00000000	0.00608560
728.00000000	0.00505648
729.00000000	0.00087647
730.00000000	0.00041212
731.00000000	0.00021290
732.00000000	0.00199124
733.00000000	0.00029922
734.00000000	0.00000019
735.00000000	0.00000000
736.00000000	0.00009915
737.00000000	0.00348498
738.00000000	0.03203470
739.00000000	0.02299418
740.00000000	0.00841309
741.00000000	0.00549682
742.00000000	0.00467202
743.00000000	0.00292967
744.00000000	0.00124267
745.00000000	0.00020704
746.00000000	0.00127943
747.00000000	0.00128414
748.00000000	0.00056911
749.00000000	0.00198074
750.00000000	0.03500965
751.00000000	0.05078055
752.00000000	0.03130874
753.00000000	0.01134430
754.00000000	0.00567325
755.00000000	0.00085738
756.00000000	0.00028103
757.00000000	0.00000000
758.00000000	0.00057136
759.00000000	0.00000000
760.00000000	0.00000000
761.00000000	0.00055448
762.00000000	0.00512088
763.00000000	0.09379904
764.00000000	0.06862818
765.00000000	0.02881525
766.00000000	0.01392437
767.00000000	0.00482366
768.00000000	0.00134202
769.00000000	0.00000000
770.00000000	0.00000000
771.00000000	0.00370450
772.00000000	0.04340599
773.00000000	0.02603608
774.00000000	0.01019291
775.00000000	0.00465507
776.00000000	0.00000352
777.00000000	0.00000000
778.00000000	0.00000000
779.00000000	0.00000000
780.00000000	0.00000000
781.00000000	0.00000000
782.00000000	0.00000000
783.00000000	0.00000000
784.00000000	0.00000000
785.00000000	0.00000000
786.00000000	0.00000000
787.00000000	0.00000000
788.00000000	0.00000000
789.00000000	0.00000000
790.00000000	0.00000000
791.00000000	0.00000000
792.00000000	0.00000000
793.00000000	0.00000000
794.00000000	0.03003648
795.00000000	0.03731634
796.00000000	0.01322349
797.00000000	0.00629668
798.00000000	0.00214761
799.00000000	0.00000000
800.00000000	0.02838194
801.00000000	0.07651066
802.00000000	0.04203490
803.00000000	0.01441620
804.00000000	0.00756078
805.00000000	0.00386104
806.00000000	0.00026861
807.00000000	0.00010056
808.00000000	0.00000000
809.00000000	0.00568865
810.00000000	0.08248922
811.00000000	0.23004593
812.00000000	0.14612682
813.00000000	0.05718359
814.00000000	0.02907977
815.00000000	0.01152769
816.00000000	0.00000000
817.00000000	0.00000000
818.00000000	0.00000000
819.00000000	0.00000000
820.00000000	0.00000000
821.00000000	0.00000000
822.00000000	0.00002315
823.00000000	0.00000000
824.00000000	0.00000000
825.00000000	0.00248609
826.00000000	0.03039729
827.00000000	0.01471440
828.00000000	0.00369824
829.00000000	0.00166356
830.00000000	0.00000000
831.00000000	0.00000000
832.00000000	0.00000000
833.00000000	0.00000000
834.00000000	0.00000000
835.00000000	0.00000000
836.00000000	0.00000000
837.00000000	0.00000000
838.00000000	0.00000000
839.00000000	0.00007466
840.00000000	0.04909120
841.00000000	0.06465028
842.00000000	0.11740174
843.00000000	0.06068711
844.00000000	0.02466905
845.00000000	0.00796403
846.00000000	0.00013180
847.00000000	0.00000000
848.00000000	0.00000000
849.00000000	0.00000000
850.00000000	0.00000000
851.00000000	0.01621549
852.00000000	0.02574547
853.00000000	0.00910149
854.00000000	0.00139221
855.00000000	0.00000000
856.00000000	0.00000000
857.00000000	0.00000000
858.00000000	0.00000000
859.00000000	0.00000000
860.00000000	0.00000000
861.00000000	0.00000000
862.00000000	0.00000000
863.00000000	0.00000000
864.00000000	0.00000000
865.00000000	0.00000000
866.00000000	0.00007182
867.00000000	0.00000000
868.00000000	0.00000000
869.00000000	0.00000000
870.00000000	0.00000000
871.00000000	0.00000000
872.00000000	0.00000000
873.00000000	0.00000000
874.00000000	0.00000000
875.00000000	0.00000000
876.00000000	0.00000000
877.00000000	0.00000000
878.00000000	0.00000000
879.00000000	0.00000000
880.00000000	0.00000000
881.00000000	0.00000000
882.00000000	0.00000000
883.00000000	0.00000000
884.00000000	0.00000000
885.00000000	0.00000000
886.00000000	0.00000000
887.00000000	0.00000000
888.00000000	0.00000000
889.00000000	0.00000000
890.00000000	0.00000000
891.00000000	0.00000000
892.00000000	0.00000000
893.00000000	0.00000000
894.00000000	0.00000000
895.00000000	0.00000000
896.00000000	0.00000000
897.00000000	0.00000000
898.00000000	0.00000000
899.00000000	0.00000000
900.00000000	0.00000000
