#LICA Lamps Spectra Database
#Website 1: https://guaix.fis.ucm.es/lamps_spectra
#Website 2: http://carlostapia.es/lamparas/lamps.html
#Latest update: 2018/04/28
#Tester: Carlos Eugenio Tapia Ayuga
#Correct for Electrical Dark: Yes (JAZA2310)
#Correct for Detector Non-linearity: Yes (JAZA2310)
#Correct for Flux: Yes
#Start wavelength (nm): 300
#End wavelength (nm): 900
#Steps (nm):	1
#Locus: D65 sRGB Gamma 1 CIE1931
#XYZ coordinates: 0.0970	0.0843	0.0199
#xyY coordinates: 0.4820	0.4191	0.0843
#sRGB: 45	17	2
#CCT Lindbloom (K):	2478
#CCT McCamy (K):	2471
#CCT Hernández-Andrés (K):	2342
#Melatonin: 0.239
#Chlorophyll a: 0.073
#Chlorophyll b: 0.318
#Beta Carotene: 0.072
#Manufacturer: Westinghouse
#Luminance manufacturer: Unknown
#Other data: Micro Candle. CFL+difusser.
#Begin Processed Spectral Data
#W	S
300.00000000	0.00000000
301.00000000	0.00000000
302.00000000	0.00000000
303.00000000	0.00000000
304.00000000	0.00000000
305.00000000	0.00000000
306.00000000	0.00000000
307.00000000	0.00000000
308.00000000	0.00000000
309.00000000	0.00000000
310.00000000	0.00000000
311.00000000	0.00000000
312.00000000	0.00000000
313.00000000	0.00000112
314.00000000	0.00666399
315.00000000	0.00105550
316.00000000	0.00000000
317.00000000	0.00000000
318.00000000	0.00000000
319.00000000	0.00000000
320.00000000	0.00000000
321.00000000	0.00000000
322.00000000	0.00000000
323.00000000	0.00000000
324.00000000	0.00000000
325.00000000	0.00000000
326.00000000	0.00000000
327.00000000	0.00000000
328.00000000	0.00000000
329.00000000	0.00035944
330.00000000	0.00000000
331.00000000	0.00000000
332.00000000	0.00000000
333.00000000	0.00000000
334.00000000	0.00000000
335.00000000	0.00174717
336.00000000	0.00229652
337.00000000	0.00000000
338.00000000	0.00001408
339.00000000	0.00096574
340.00000000	0.00069417
341.00000000	0.00212128
342.00000000	0.00255866
343.00000000	0.00037410
344.00000000	0.00068259
345.00000000	0.00003937
346.00000000	0.00005428
347.00000000	0.00125432
348.00000000	0.00000000
349.00000000	0.00123903
350.00000000	0.00000218
351.00000000	0.00016619
352.00000000	0.00210565
353.00000000	0.00087942
354.00000000	0.00123481
355.00000000	0.00253401
356.00000000	0.00130844
357.00000000	0.00173498
358.00000000	0.00114932
359.00000000	0.00149167
360.00000000	0.00242527
361.00000000	0.00283789
362.00000000	0.00199322
363.00000000	0.00242678
364.00000000	0.00682790
365.00000000	0.06141566
366.00000000	0.13176478
367.00000000	0.07889685
368.00000000	0.02343246
369.00000000	0.00540708
370.00000000	0.00184275
371.00000000	0.00222174
372.00000000	0.00135825
373.00000000	0.00087755
374.00000000	0.00106039
375.00000000	0.00150490
376.00000000	0.00184981
377.00000000	0.00122598
378.00000000	0.00208730
379.00000000	0.00206621
380.00000000	0.00236691
381.00000000	0.00136132
382.00000000	0.00162475
383.00000000	0.00124775
384.00000000	0.00169567
385.00000000	0.00073085
386.00000000	0.00140423
387.00000000	0.00083983
388.00000000	0.00046071
389.00000000	0.00029800
390.00000000	0.00039175
391.00000000	0.00043552
392.00000000	0.00095416
393.00000000	0.00049086
394.00000000	0.00009270
395.00000000	0.00079955
396.00000000	0.00002972
397.00000000	0.00002018
398.00000000	0.00014186
399.00000000	0.00051737
400.00000000	0.00001290
401.00000000	0.00021919
402.00000000	0.00059442
403.00000000	0.00164957
404.00000000	0.02170941
405.00000000	0.15878548
406.00000000	0.12063434
407.00000000	0.04110196
408.00000000	0.01798053
409.00000000	0.01296794
410.00000000	0.00427030
411.00000000	0.00082785
412.00000000	0.00060337
413.00000000	0.00074707
414.00000000	0.00021204
415.00000000	0.00154347
416.00000000	0.00113662
417.00000000	0.00060430
418.00000000	0.00101107
419.00000000	0.00000000
420.00000000	0.00000348
421.00000000	0.00028926
422.00000000	0.00040587
423.00000000	0.00069223
424.00000000	0.00032588
425.00000000	0.00000000
426.00000000	0.00006786
427.00000000	0.00075353
428.00000000	0.00023558
429.00000000	0.00013472
430.00000000	0.00035289
431.00000000	0.00007537
432.00000000	0.00068169
433.00000000	0.00190560
434.00000000	0.00392639
435.00000000	0.04126897
436.00000000	0.34582333
437.00000000	0.31604319
438.00000000	0.12698261
439.00000000	0.03247547
440.00000000	0.00528865
441.00000000	0.00160859
442.00000000	0.00042843
443.00000000	0.00076624
444.00000000	0.00024740
445.00000000	0.00049781
446.00000000	0.00013151
447.00000000	0.00010930
448.00000000	0.00049574
449.00000000	0.00042141
450.00000000	0.00049994
451.00000000	0.00059926
452.00000000	0.00008494
453.00000000	0.00070483
454.00000000	0.00012465
455.00000000	0.00083690
456.00000000	0.00015069
457.00000000	0.00082993
458.00000000	0.00034517
459.00000000	0.00018660
460.00000000	0.00042414
461.00000000	0.00094974
462.00000000	0.00012171
463.00000000	0.00041432
464.00000000	0.00047517
465.00000000	0.00055287
466.00000000	0.00092858
467.00000000	0.00104782
468.00000000	0.00200670
469.00000000	0.00086053
470.00000000	0.00102320
471.00000000	0.00096718
472.00000000	0.00108272
473.00000000	0.00140420
474.00000000	0.00100465
475.00000000	0.00052144
476.00000000	0.00125865
477.00000000	0.00119424
478.00000000	0.00113709
479.00000000	0.00200224
480.00000000	0.00344967
481.00000000	0.00496728
482.00000000	0.00890994
483.00000000	0.01616368
484.00000000	0.02651655
485.00000000	0.03953776
486.00000000	0.05750144
487.00000000	0.07159313
488.00000000	0.07501595
489.00000000	0.06991147
490.00000000	0.06048010
491.00000000	0.05300989
492.00000000	0.04867782
493.00000000	0.04330090
494.00000000	0.03865382
495.00000000	0.03345175
496.00000000	0.02917888
497.00000000	0.02619174
498.00000000	0.02265383
499.00000000	0.01900550
500.00000000	0.01618169
501.00000000	0.01318400
502.00000000	0.01038271
503.00000000	0.00835640
504.00000000	0.00611651
505.00000000	0.00516307
506.00000000	0.00359848
507.00000000	0.00326044
508.00000000	0.00270437
509.00000000	0.00259062
510.00000000	0.00252619
511.00000000	0.00216692
512.00000000	0.00176297
513.00000000	0.00199771
514.00000000	0.00161037
515.00000000	0.00161979
516.00000000	0.00140915
517.00000000	0.00141899
518.00000000	0.00113607
519.00000000	0.00091319
520.00000000	0.00123384
521.00000000	0.00092809
522.00000000	0.00101201
523.00000000	0.00071355
524.00000000	0.00091493
525.00000000	0.00079900
526.00000000	0.00108167
527.00000000	0.00133291
528.00000000	0.00177810
529.00000000	0.00182036
530.00000000	0.00203180
531.00000000	0.00250441
532.00000000	0.00308663
533.00000000	0.00827591
534.00000000	0.01335200
535.00000000	0.01196536
536.00000000	0.01370886
537.00000000	0.02183450
538.00000000	0.03909550
539.00000000	0.05666800
540.00000000	0.09720291
541.00000000	0.19661375
542.00000000	0.32218877
543.00000000	0.31865747
544.00000000	0.30513620
545.00000000	0.31623786
546.00000000	0.52459120
547.00000000	0.47982990
548.00000000	0.33662004
549.00000000	0.25025787
550.00000000	0.17114447
551.00000000	0.12529869
552.00000000	0.09315264
553.00000000	0.06934995
554.00000000	0.05126644
555.00000000	0.03676564
556.00000000	0.02688573
557.00000000	0.01993879
558.00000000	0.01555287
559.00000000	0.01258329
560.00000000	0.01011141
561.00000000	0.00902990
562.00000000	0.00811675
563.00000000	0.00783945
564.00000000	0.00719514
565.00000000	0.00670328
566.00000000	0.00537618
567.00000000	0.00548279
568.00000000	0.00540265
569.00000000	0.00540996
570.00000000	0.00497771
571.00000000	0.00372521
572.00000000	0.00322383
573.00000000	0.00337600
574.00000000	0.00333099
575.00000000	0.00426040
576.00000000	0.01272177
577.00000000	0.06175478
578.00000000	0.05083832
579.00000000	0.07902581
580.00000000	0.08038175
581.00000000	0.07200185
582.00000000	0.06747316
583.00000000	0.07596022
584.00000000	0.07791779
585.00000000	0.07577331
586.00000000	0.07431371
587.00000000	0.11136198
588.00000000	0.12321061
589.00000000	0.08375567
590.00000000	0.06664016
591.00000000	0.05894602
592.00000000	0.06970482
593.00000000	0.10753137
594.00000000	0.10366048
595.00000000	0.07431635
596.00000000	0.05790680
597.00000000	0.04751390
598.00000000	0.04749371
599.00000000	0.06622557
600.00000000	0.07812480
601.00000000	0.06531661
602.00000000	0.04932604
603.00000000	0.03737835
604.00000000	0.03299617
605.00000000	0.03342390
606.00000000	0.03666232
607.00000000	0.04570611
608.00000000	0.06331587
609.00000000	0.10570100
610.00000000	0.26867323
611.00000000	0.86485115
612.00000000	1.00000000
613.00000000	0.71953966
614.00000000	0.57877895
615.00000000	0.42763719
616.00000000	0.27550412
617.00000000	0.17987964
618.00000000	0.12273748
619.00000000	0.08851597
620.00000000	0.07521077
621.00000000	0.07323049
622.00000000	0.07115174
623.00000000	0.07889074
624.00000000	0.08527002
625.00000000	0.09067986
626.00000000	0.09373330
627.00000000	0.09369528
628.00000000	0.09226351
629.00000000	0.09007472
630.00000000	0.11170665
631.00000000	0.15875610
632.00000000	0.12763194
633.00000000	0.07977995
634.00000000	0.05310318
635.00000000	0.03275303
636.00000000	0.02254965
637.00000000	0.01767361
638.00000000	0.01525825
639.00000000	0.01363629
640.00000000	0.01248023
641.00000000	0.01243636
642.00000000	0.01195754
643.00000000	0.01223832
644.00000000	0.01269263
645.00000000	0.01252977
646.00000000	0.01277391
647.00000000	0.01275706
648.00000000	0.01273482
649.00000000	0.01595176
650.00000000	0.03463342
651.00000000	0.04270212
652.00000000	0.03212115
653.00000000	0.03138620
654.00000000	0.02500061
655.00000000	0.01866252
656.00000000	0.01547997
657.00000000	0.01505678
658.00000000	0.01583016
659.00000000	0.01345839
660.00000000	0.01054037
661.00000000	0.01146276
662.00000000	0.02255421
663.00000000	0.02712408
664.00000000	0.01994670
665.00000000	0.01601217
666.00000000	0.01227738
667.00000000	0.01064288
668.00000000	0.00972573
669.00000000	0.00889718
670.00000000	0.00827490
671.00000000	0.00792842
672.00000000	0.00767352
673.00000000	0.00642030
674.00000000	0.00626786
675.00000000	0.00587933
676.00000000	0.00617797
677.00000000	0.00536234
678.00000000	0.00614519
679.00000000	0.00684199
680.00000000	0.00777610
681.00000000	0.00812978
682.00000000	0.00735968
683.00000000	0.00649116
684.00000000	0.00718150
685.00000000	0.00732170
686.00000000	0.01076242
687.00000000	0.02235599
688.00000000	0.02722163
689.00000000	0.02040286
690.00000000	0.01259218
691.00000000	0.00869462
692.00000000	0.00603931
693.00000000	0.01525845
694.00000000	0.01817649
695.00000000	0.01083324
696.00000000	0.00955599
697.00000000	0.00751800
698.00000000	0.00309503
699.00000000	0.00205080
700.00000000	0.00240736
701.00000000	0.00291075
702.00000000	0.00334863
703.00000000	0.00535535
704.00000000	0.01031882
705.00000000	0.01717406
706.00000000	0.04167443
707.00000000	0.06742163
708.00000000	0.06812430
709.00000000	0.08732406
710.00000000	0.06041588
711.00000000	0.04891500
712.00000000	0.07098867
713.00000000	0.05734569
714.00000000	0.03087549
715.00000000	0.01872878
716.00000000	0.00963993
717.00000000	0.00322800
718.00000000	0.00107217
719.00000000	0.00128446
720.00000000	0.00107275
721.00000000	0.00088571
722.00000000	0.00052200
723.00000000	0.00072979
724.00000000	0.00065610
725.00000000	0.00055496
726.00000000	0.00000000
727.00000000	0.00097084
728.00000000	0.00147954
729.00000000	0.00043231
730.00000000	0.00001684
731.00000000	0.00020840
732.00000000	0.00021506
733.00000000	0.00015633
734.00000000	0.00000000
735.00000000	0.00030520
736.00000000	0.00000000
737.00000000	0.00034936
738.00000000	0.00220730
739.00000000	0.00116471
740.00000000	0.00071129
741.00000000	0.00012149
742.00000000	0.00119416
743.00000000	0.00194949
744.00000000	0.00068964
745.00000000	0.00102353
746.00000000	0.00024066
747.00000000	0.00180772
748.00000000	0.00000000
749.00000000	0.00034784
750.00000000	0.00276430
751.00000000	0.00570531
752.00000000	0.00317227
753.00000000	0.00136782
754.00000000	0.00000000
755.00000000	0.00000000
756.00000000	0.00000000
757.00000000	0.00000000
758.00000000	0.00000000
759.00000000	0.00000000
760.00000000	0.00000000
761.00000000	0.00000000
762.00000000	0.00017229
763.00000000	0.01550041
764.00000000	0.01208723
765.00000000	0.00356044
766.00000000	0.00160360
767.00000000	0.00034250
768.00000000	0.00003609
769.00000000	0.00000000
770.00000000	0.00000000
771.00000000	0.00000000
772.00000000	0.00271354
773.00000000	0.00215369
774.00000000	0.00002221
775.00000000	0.00000000
776.00000000	0.00000000
777.00000000	0.00000000
778.00000000	0.00000000
779.00000000	0.00000000
780.00000000	0.00000000
781.00000000	0.00000000
782.00000000	0.00000000
783.00000000	0.00000000
784.00000000	0.00000000
785.00000000	0.00000000
786.00000000	0.00000000
787.00000000	0.00000000
788.00000000	0.00000000
789.00000000	0.00000000
790.00000000	0.00000000
791.00000000	0.00000000
792.00000000	0.00000000
793.00000000	0.00000000
794.00000000	0.00089344
795.00000000	0.00381955
796.00000000	0.00140734
797.00000000	0.00000000
798.00000000	0.00000000
799.00000000	0.00000000
800.00000000	0.00158348
801.00000000	0.00299819
802.00000000	0.00270191
803.00000000	0.00000000
804.00000000	0.00000000
805.00000000	0.00000000
806.00000000	0.00000000
807.00000000	0.00000000
808.00000000	0.00000000
809.00000000	0.00000000
810.00000000	0.00537763
811.00000000	0.02738404
812.00000000	0.01864710
813.00000000	0.00667071
814.00000000	0.00144566
815.00000000	0.00000000
816.00000000	0.00012691
817.00000000	0.00000000
818.00000000	0.00000000
819.00000000	0.00000000
820.00000000	0.00000000
821.00000000	0.00000000
822.00000000	0.00000000
823.00000000	0.00000000
824.00000000	0.00000000
825.00000000	0.00000000
826.00000000	0.00001432
827.00000000	0.00076920
828.00000000	0.00000000
829.00000000	0.00000000
830.00000000	0.00000000
831.00000000	0.00000000
832.00000000	0.00000000
833.00000000	0.00000000
834.00000000	0.00000000
835.00000000	0.00000000
836.00000000	0.00000000
837.00000000	0.00000000
838.00000000	0.00000000
839.00000000	0.00000000
840.00000000	0.00000000
841.00000000	0.00430344
842.00000000	0.01291270
843.00000000	0.00693994
844.00000000	0.00002006
845.00000000	0.00000000
846.00000000	0.00000000
847.00000000	0.00000000
848.00000000	0.00000000
849.00000000	0.00000000
850.00000000	0.00000000
851.00000000	0.00000000
852.00000000	0.00000000
853.00000000	0.00000000
854.00000000	0.00000000
855.00000000	0.00000000
856.00000000	0.00000000
857.00000000	0.00000000
858.00000000	0.00000000
859.00000000	0.00000000
860.00000000	0.00000000
861.00000000	0.00000000
862.00000000	0.00000000
863.00000000	0.00000000
864.00000000	0.00000000
865.00000000	0.00000000
866.00000000	0.00000000
867.00000000	0.00000000
868.00000000	0.00000000
869.00000000	0.00000000
870.00000000	0.00000000
871.00000000	0.00000000
872.00000000	0.00000000
873.00000000	0.00000000
874.00000000	0.00000000
875.00000000	0.00000000
876.00000000	0.00000000
877.00000000	0.00000000
878.00000000	0.00000000
879.00000000	0.00000000
880.00000000	0.00000000
881.00000000	0.00000000
882.00000000	0.00000000
883.00000000	0.00000000
884.00000000	0.00000000
885.00000000	0.00000000
886.00000000	0.00000000
887.00000000	0.00000000
888.00000000	0.00000000
889.00000000	0.00000000
890.00000000	0.00000000
891.00000000	0.00000000
892.00000000	0.00000000
893.00000000	0.00000000
894.00000000	0.00000000
895.00000000	0.00000000
896.00000000	0.00000000
897.00000000	0.00000000
898.00000000	0.00000000
899.00000000	0.00000000
900.00000000	0.00000000
