#LICA Lamps Spectra Database
#Website 1: https://guaix.fis.ucm.es/lamps_spectra
#Website 2: http://carlostapia.es/lamparas/lamps.html
#Latest update: 2017/12/15
#Tester: Carlos Eugenio Tapia Ayuga
#Correct for Electrical Dark: Yes (JAZA2310)
#Correct for Detector Non-linearity: Yes (JAZA2310)
#Correct for Flux: Yes
#Start wavelength (nm): 300
#End wavelength (nm): 900
#Steps (nm):	1
#Locus: D65 sRGB Gamma 1 CIE1931
#XYZ coordinates: 0.3125	0.2715	0.0970
#xyY coordinates: 0.4589	0.3987	0.2715
#sRGB: 139	54	16
#CCT Lindbloom (K):	2620
#CCT McCamy (K):	2611
#CCT Hernández-Andrés (K):	2521
#Melatonin: 0.353
#Chlorophyll a: 0.380
#Chlorophyll b: 0.526
#Beta Carotene: 0.381
#Manufacturer: Unknown
#Luminance manufacturer: Unknown
#Other data:
#Begin Processed Spectral Data
W	S
300.00000000	0.00000000
301.00000000	0.00000000
302.00000000	0.00000000
303.00000000	0.01261363
304.00000000	0.00122477
305.00000000	0.00000000
306.00000000	0.00000000
307.00000000	0.00528419
308.00000000	0.00121700
309.00000000	0.00140232
310.00000000	0.00000000
311.00000000	0.00000000
312.00000000	0.00000000
313.00000000	0.00000000
314.00000000	0.00000000
315.00000000	0.00000000
316.00000000	0.00000000
317.00000000	0.00000000
318.00000000	0.00000000
319.00000000	0.00000000
320.00000000	0.00000000
321.00000000	0.00000000
322.00000000	0.00000000
323.00000000	0.00000000
324.00000000	0.00891294
325.00000000	0.00149791
326.00000000	0.00000000
327.00000000	0.00000000
328.00000000	0.00546623
329.00000000	0.00209028
330.00000000	0.00000000
331.00000000	0.00160420
332.00000000	0.00452169
333.00000000	0.00000000
334.00000000	0.00000000
335.00000000	0.00000000
336.00000000	0.00000000
337.00000000	0.00000000
338.00000000	0.00000000
339.00000000	0.00000000
340.00000000	0.00000000
341.00000000	0.00000000
342.00000000	0.00000000
343.00000000	0.00034493
344.00000000	0.00292543
345.00000000	0.00402699
346.00000000	0.00000000
347.00000000	0.00000000
348.00000000	0.00000000
349.00000000	0.00000000
350.00000000	0.00000000
351.00000000	0.00000000
352.00000000	0.00000000
353.00000000	0.00000000
354.00000000	0.00000000
355.00000000	0.00376143
356.00000000	0.00000000
357.00000000	0.00000000
358.00000000	0.00000000
359.00000000	0.00000000
360.00000000	0.00000000
361.00000000	0.00000000
362.00000000	0.00000000
363.00000000	0.00257618
364.00000000	0.00117334
365.00000000	0.00218967
366.00000000	0.00285330
367.00000000	0.00200728
368.00000000	0.00871191
369.00000000	0.00050074
370.00000000	0.00269800
371.00000000	0.00300566
372.00000000	0.00904131
373.00000000	0.00899662
374.00000000	0.00873469
375.00000000	0.01079909
376.00000000	0.00936433
377.00000000	0.01790852
378.00000000	0.01231063
379.00000000	0.00891501
380.00000000	0.00762208
381.00000000	0.00578563
382.00000000	0.00596818
383.00000000	0.01232996
384.00000000	0.01194655
385.00000000	0.01586104
386.00000000	0.01764780
387.00000000	0.01501174
388.00000000	0.01991598
389.00000000	0.02625739
390.00000000	0.02728027
391.00000000	0.02552681
392.00000000	0.03154227
393.00000000	0.02911845
394.00000000	0.02679765
395.00000000	0.03487544
396.00000000	0.03630588
397.00000000	0.03819445
398.00000000	0.03184700
399.00000000	0.03144910
400.00000000	0.03870296
401.00000000	0.04137715
402.00000000	0.03768456
403.00000000	0.04159939
404.00000000	0.05373144
405.00000000	0.08018312
406.00000000	0.08206927
407.00000000	0.06391486
408.00000000	0.05091851
409.00000000	0.05698919
410.00000000	0.07132764
411.00000000	0.08993551
412.00000000	0.09075806
413.00000000	0.08894869
414.00000000	0.09086815
415.00000000	0.08262160
416.00000000	0.07759003
417.00000000	0.09890832
418.00000000	0.10854011
419.00000000	0.10946705
420.00000000	0.11821261
421.00000000	0.12737039
422.00000000	0.14019695
423.00000000	0.14314912
424.00000000	0.11336514
425.00000000	0.09074978
426.00000000	0.08370350
427.00000000	0.08498659
428.00000000	0.07243593
429.00000000	0.07054357
430.00000000	0.06882548
431.00000000	0.07193985
432.00000000	0.07011685
433.00000000	0.06692967
434.00000000	0.06676419
435.00000000	0.08871437
436.00000000	0.16971503
437.00000000	0.17540869
438.00000000	0.13175439
439.00000000	0.09657009
440.00000000	0.09150676
441.00000000	0.09158976
442.00000000	0.08583605
443.00000000	0.08859945
444.00000000	0.09055428
445.00000000	0.08730687
446.00000000	0.08886259
447.00000000	0.08545006
448.00000000	0.08101982
449.00000000	0.07942924
450.00000000	0.07847418
451.00000000	0.08111368
452.00000000	0.08656232
453.00000000	0.08998417
454.00000000	0.08948585
455.00000000	0.08823710
456.00000000	0.09232120
457.00000000	0.09262489
458.00000000	0.09187447
459.00000000	0.09467634
460.00000000	0.09363345
461.00000000	0.09567196
462.00000000	0.08598583
463.00000000	0.08628486
464.00000000	0.08379478
465.00000000	0.08144981
466.00000000	0.07983871
467.00000000	0.08231826
468.00000000	0.09377546
469.00000000	0.09731016
470.00000000	0.09920373
471.00000000	0.10146380
472.00000000	0.09987978
473.00000000	0.10173608
474.00000000	0.09668311
475.00000000	0.08773756
476.00000000	0.07758588
477.00000000	0.07210688
478.00000000	0.07044901
479.00000000	0.06866156
480.00000000	0.06771754
481.00000000	0.06585640
482.00000000	0.06399165
483.00000000	0.06444615
484.00000000	0.06509166
485.00000000	0.06561293
486.00000000	0.06314339
487.00000000	0.06486976
488.00000000	0.06687359
489.00000000	0.07300725
490.00000000	0.07246026
491.00000000	0.07120306
492.00000000	0.07339652
493.00000000	0.07616389
494.00000000	0.08372800
495.00000000	0.08153419
496.00000000	0.08516052
497.00000000	0.09146086
498.00000000	0.11289045
499.00000000	0.12970759
500.00000000	0.12737419
501.00000000	0.11284628
502.00000000	0.09664532
503.00000000	0.09051442
504.00000000	0.08765957
505.00000000	0.08861533
506.00000000	0.08683443
507.00000000	0.08641289
508.00000000	0.08466133
509.00000000	0.07919354
510.00000000	0.07425082
511.00000000	0.07490600
512.00000000	0.07706409
513.00000000	0.08154368
514.00000000	0.08055117
515.00000000	0.08434659
516.00000000	0.09247287
517.00000000	0.09293634
518.00000000	0.09404170
519.00000000	0.09594442
520.00000000	0.09325867
521.00000000	0.09389210
522.00000000	0.09892575
523.00000000	0.10299571
524.00000000	0.10093631
525.00000000	0.09412539
526.00000000	0.08857340
527.00000000	0.08440889
528.00000000	0.08589990
529.00000000	0.08531236
530.00000000	0.09790908
531.00000000	0.12089249
532.00000000	0.12528374
533.00000000	0.14215627
534.00000000	0.21625887
535.00000000	0.38384653
536.00000000	0.53072378
537.00000000	0.72465959
538.00000000	0.78252793
539.00000000	0.78317016
540.00000000	0.66475860
541.00000000	0.50954559
542.00000000	0.33477793
543.00000000	0.22452629
544.00000000	0.15892406
545.00000000	0.14386486
546.00000000	0.27022618
547.00000000	0.33621424
548.00000000	0.27530435
549.00000000	0.19545512
550.00000000	0.12998212
551.00000000	0.11089318
552.00000000	0.10620912
553.00000000	0.10731672
554.00000000	0.10750204
555.00000000	0.11186740
556.00000000	0.11080828
557.00000000	0.10976142
558.00000000	0.10489652
559.00000000	0.10421598
560.00000000	0.10462993
561.00000000	0.10146069
562.00000000	0.10810528
563.00000000	0.12359861
564.00000000	0.14047200
565.00000000	0.14799159
566.00000000	0.16437183
567.00000000	0.19802854
568.00000000	0.25781271
569.00000000	0.36436589
570.00000000	0.42589421
571.00000000	0.37364429
572.00000000	0.30309934
573.00000000	0.22089358
574.00000000	0.18419963
575.00000000	0.16972556
576.00000000	0.17830599
577.00000000	0.20401484
578.00000000	0.21043028
579.00000000	0.22009847
580.00000000	0.21374722
581.00000000	0.21780337
582.00000000	0.22165091
583.00000000	0.23673512
584.00000000	0.26581216
585.00000000	0.31695482
586.00000000	0.39988857
587.00000000	0.50606783
588.00000000	0.53376015
589.00000000	0.37879666
590.00000000	0.23528276
591.00000000	0.15891232
592.00000000	0.18303957
593.00000000	0.27601836
594.00000000	0.37202352
595.00000000	0.45899858
596.00000000	0.52092014
597.00000000	0.58041321
598.00000000	0.60435704
599.00000000	0.63636279
600.00000000	0.65021430
601.00000000	0.64812626
602.00000000	0.65253183
603.00000000	0.63521930
604.00000000	0.62638487
605.00000000	0.59653929
606.00000000	0.58104095
607.00000000	0.56009381
608.00000000	0.54384143
609.00000000	0.52716423
610.00000000	0.50462151
611.00000000	0.48155683
612.00000000	0.46028943
613.00000000	0.44146656
614.00000000	0.42453916
615.00000000	0.42090818
616.00000000	0.44224891
617.00000000	0.45222165
618.00000000	0.42837272
619.00000000	0.40232619
620.00000000	0.37520846
621.00000000	0.35283139
622.00000000	0.33986921
623.00000000	0.33094816
624.00000000	0.31656244
625.00000000	0.31286485
626.00000000	0.31678831
627.00000000	0.30739861
628.00000000	0.29976773
629.00000000	0.29074436
630.00000000	0.27774663
631.00000000	0.27708024
632.00000000	0.26705522
633.00000000	0.26355951
634.00000000	0.25796662
635.00000000	0.25086616
636.00000000	0.24828273
637.00000000	0.25311243
638.00000000	0.24564443
639.00000000	0.24165937
640.00000000	0.24412926
641.00000000	0.23440103
642.00000000	0.23602438
643.00000000	0.23654980
644.00000000	0.22818627
645.00000000	0.22683985
646.00000000	0.22725173
647.00000000	0.22422605
648.00000000	0.22792433
649.00000000	0.21891235
650.00000000	0.21095121
651.00000000	0.20843870
652.00000000	0.20309187
653.00000000	0.19676150
654.00000000	0.20358950
655.00000000	0.21028119
656.00000000	0.23154962
657.00000000	0.22589859
658.00000000	0.23165177
659.00000000	0.22233921
660.00000000	0.22050275
661.00000000	0.22498183
662.00000000	0.20615447
663.00000000	0.19917755
664.00000000	0.19062767
665.00000000	0.18559971
666.00000000	0.18606508
667.00000000	0.18971142
668.00000000	0.19798782
669.00000000	0.19767843
670.00000000	0.20653201
671.00000000	0.21672010
672.00000000	0.21150441
673.00000000	0.21916963
674.00000000	0.21896274
675.00000000	0.20498924
676.00000000	0.19598899
677.00000000	0.19475077
678.00000000	0.18676719
679.00000000	0.18282061
680.00000000	0.17600382
681.00000000	0.16090822
682.00000000	0.15507290
683.00000000	0.15053964
684.00000000	0.15131336
685.00000000	0.14343797
686.00000000	0.13585057
687.00000000	0.13014501
688.00000000	0.11699751
689.00000000	0.10490325
690.00000000	0.10114958
691.00000000	0.09680752
692.00000000	0.09770633
693.00000000	0.09165118
694.00000000	0.09271082
695.00000000	0.09215020
696.00000000	0.08959214
697.00000000	0.08806782
698.00000000	0.08861464
699.00000000	0.08440009
700.00000000	0.08101723
701.00000000	0.08173935
702.00000000	0.07782676
703.00000000	0.07959023
704.00000000	0.07734811
705.00000000	0.07635422
706.00000000	0.07104604
707.00000000	0.07283556
708.00000000	0.07286300
709.00000000	0.07212759
710.00000000	0.07014291
711.00000000	0.06920613
712.00000000	0.06552718
713.00000000	0.07127639
714.00000000	0.06925565
715.00000000	0.07063071
716.00000000	0.06838617
717.00000000	0.06774428
718.00000000	0.06867019
719.00000000	0.06618235
720.00000000	0.06370849
721.00000000	0.06564917
722.00000000	0.07042313
723.00000000	0.06284280
724.00000000	0.06584985
725.00000000	0.06640408
726.00000000	0.06302191
727.00000000	0.06419112
728.00000000	0.06583604
729.00000000	0.06103137
730.00000000	0.06589626
731.00000000	0.06795048
732.00000000	0.06567281
733.00000000	0.06238882
734.00000000	0.06197125
735.00000000	0.06629537
736.00000000	0.06037792
737.00000000	0.06577513
738.00000000	0.06427653
739.00000000	0.06197677
740.00000000	0.06366104
741.00000000	0.06777983
742.00000000	0.06474776
743.00000000	0.07162684
744.00000000	0.06550664
745.00000000	0.06475018
746.00000000	0.06403962
747.00000000	0.05785868
748.00000000	0.06232981
749.00000000	0.06043641
750.00000000	0.06671933
751.00000000	0.06091024
752.00000000	0.07076668
753.00000000	0.06779449
754.00000000	0.06350247
755.00000000	0.06995414
756.00000000	0.07417611
757.00000000	0.07104242
758.00000000	0.08129400
759.00000000	0.06971895
760.00000000	0.06254792
761.00000000	0.06861325
762.00000000	0.06164582
763.00000000	0.06208548
764.00000000	0.05831525
765.00000000	0.06297049
766.00000000	0.07060396
767.00000000	0.10320794
768.00000000	0.09115838
769.00000000	0.08067385
770.00000000	0.07622653
771.00000000	0.07936195
772.00000000	0.07358133
773.00000000	0.06586279
774.00000000	0.06180836
775.00000000	0.06272978
776.00000000	0.05300293
777.00000000	0.06374404
778.00000000	0.05523038
779.00000000	0.05301380
780.00000000	0.05016826
781.00000000	0.05694951
782.00000000	0.06491169
783.00000000	0.05555305
784.00000000	0.05696055
785.00000000	0.05133574
786.00000000	0.06076167
787.00000000	0.04699195
788.00000000	0.04682682
789.00000000	0.04246387
790.00000000	0.05206994
791.00000000	0.04753238
792.00000000	0.04594181
793.00000000	0.05914573
794.00000000	0.05524229
795.00000000	0.04886205
796.00000000	0.04230547
797.00000000	0.04469375
798.00000000	0.05473206
799.00000000	0.04524211
800.00000000	0.05030630
801.00000000	0.04204699
802.00000000	0.05057427
803.00000000	0.04089815
804.00000000	0.04021847
805.00000000	0.04327521
806.00000000	0.04166600
807.00000000	0.05321672
808.00000000	0.05427324
809.00000000	0.04530354
810.00000000	0.05310784
811.00000000	0.05614335
812.00000000	0.05243196
813.00000000	0.05734689
814.00000000	0.07643721
815.00000000	0.07625310
816.00000000	0.08732862
817.00000000	0.13803299
818.00000000	0.37088589
819.00000000	0.69352419
820.00000000	0.92751696
821.00000000	1.00000000
822.00000000	0.82234401
823.00000000	0.62687164
824.00000000	0.42769305
825.00000000	0.29268383
826.00000000	0.22592827
827.00000000	0.18251761
828.00000000	0.16029221
829.00000000	0.11799589
830.00000000	0.11718887
831.00000000	0.10605641
832.00000000	0.08904929
833.00000000	0.09415766
834.00000000	0.08414868
835.00000000	0.06765628
836.00000000	0.06489305
837.00000000	0.08064676
838.00000000	0.05819015
839.00000000	0.05931259
840.00000000	0.07509891
841.00000000	0.05861290
842.00000000	0.05915419
843.00000000	0.06092991
844.00000000	0.05628829
845.00000000	0.04515394
846.00000000	0.04564536
847.00000000	0.06094492
848.00000000	0.05120132
849.00000000	0.04897594
850.00000000	0.04486975
851.00000000	0.03982005
852.00000000	0.05379735
853.00000000	0.04059532
854.00000000	0.04183648
855.00000000	0.04821050
856.00000000	0.05379597
857.00000000	0.04972498
858.00000000	0.03597217
859.00000000	0.04819704
860.00000000	0.04001883
861.00000000	0.03817927
862.00000000	0.02507179
863.00000000	0.03499898
864.00000000	0.03781018
865.00000000	0.03719693
866.00000000	0.04800879
867.00000000	0.05090281
868.00000000	0.06254015
869.00000000	0.04271545
870.00000000	0.04219711
871.00000000	0.04875887
872.00000000	0.04857131
873.00000000	0.04518017
874.00000000	0.03020155
875.00000000	0.04023814
876.00000000	0.05110418
877.00000000	0.02757395
878.00000000	0.04417437
879.00000000	0.03105758
880.00000000	0.02917298
881.00000000	0.02329556
882.00000000	0.03468805
883.00000000	0.04032994
884.00000000	0.03186356
885.00000000	0.01709391
886.00000000	0.02590590
887.00000000	0.05551751
888.00000000	0.03293234
889.00000000	0.04849987
890.00000000	0.03539619
891.00000000	0.02692499
892.00000000	0.00756842
893.00000000	0.03272287
894.00000000	0.03693966
895.00000000	0.01779878
896.00000000	0.03508181
897.00000000	0.06060016
898.00000000	0.02022329
899.00000000	0.01840461
900.00000000	0.00000000
