#LICA Lamps Spectra Database
#Website 1: https://guaix.fis.ucm.es/lamps_spectra
#Website 2: http://carlostapia.es/lamparas/lamps.html
#Latest update: 2018/04/25
#Tester: Carlos Eugenio Tapia Ayuga
#Correct for Electrical Dark: Yes (JAZA2310)
#Correct for Detector Non-linearity: Yes (JAZA2310)
#Correct for Flux: Yes
#Start wavelength (nm): 300
#End wavelength (nm): 900
#Steps (nm):	1
#Locus: D65 sRGB Gamma 1 CIE1931
#XYZ coordinates: 0.3198	0.2928	0.0930
#xyY coordinates: 0.4532	0.4150	0.2928
#sRGB: 138	62	14
#CCT Lindbloom (K):	2829
#CCT McCamy (K):	2831
#CCT Hernández-Andrés (K):	2756
#Melatonin: 0.321
#Chlorophyll a: 0.369
#Chlorophyll b: 0.477
#Beta Carotene: 0.370
#Manufacturer: Unknown
#Luminance manufacturer: Unknown
#Other data: New street lamps in Gregorio Marañón and Ronda streets in Almería.
#Begin Processed Spectral Data
W	S
300.00000000	0.00000000
301.00000000	0.00000000
302.00000000	0.00000000
303.00000000	0.00012676
304.00000000	0.00000000
305.00000000	0.00000000
306.00000000	0.00000000
307.00000000	0.00000000
308.00000000	0.01392042
309.00000000	0.00177477
310.00000000	0.00799592
311.00000000	0.00000000
312.00000000	0.00000000
313.00000000	0.00000108
314.00000000	0.01035840
315.00000000	0.00000000
316.00000000	0.00000000
317.00000000	0.00000000
318.00000000	0.00000000
319.00000000	0.00011740
320.00000000	0.00000000
321.00000000	0.00188602
322.00000000	0.00000000
323.00000000	0.00000000
324.00000000	0.00280486
325.00000000	0.00144693
326.00000000	0.00000000
327.00000000	0.00000000
328.00000000	0.00000000
329.00000000	0.00000000
330.00000000	0.00000000
331.00000000	0.00000000
332.00000000	0.00000000
333.00000000	0.00188637
334.00000000	0.00000000
335.00000000	0.00000000
336.00000000	0.00003586
337.00000000	0.00078147
338.00000000	0.00123267
339.00000000	0.00005772
340.00000000	0.00126300
341.00000000	0.00130846
342.00000000	0.00045977
343.00000000	0.00271131
344.00000000	0.00000000
345.00000000	0.00120546
346.00000000	0.00303979
347.00000000	0.00778259
348.00000000	0.00488871
349.00000000	0.00314303
350.00000000	0.00320839
351.00000000	0.01600888
352.00000000	0.03549485
353.00000000	0.02432951
354.00000000	0.03441155
355.00000000	0.03403408
356.00000000	0.03607366
357.00000000	0.03021623
358.00000000	0.03255620
359.00000000	0.03376896
360.00000000	0.02821220
361.00000000	0.03134969
362.00000000	0.02827692
363.00000000	0.02895275
364.00000000	0.03316421
365.00000000	0.05934356
366.00000000	0.08944976
367.00000000	0.06323477
368.00000000	0.05366396
369.00000000	0.04182095
370.00000000	0.03927140
371.00000000	0.03399223
372.00000000	0.03187456
373.00000000	0.02939820
374.00000000	0.02986663
375.00000000	0.02743028
376.00000000	0.02553723
377.00000000	0.02732534
378.00000000	0.02131680
379.00000000	0.00237026
380.00000000	0.00388340
381.00000000	0.00462561
382.00000000	0.00145279
383.00000000	0.00570677
384.00000000	0.01167811
385.00000000	0.01103084
386.00000000	0.01017189
387.00000000	0.01088411
388.00000000	0.01264319
389.00000000	0.01011410
390.00000000	0.01567299
391.00000000	0.01682272
392.00000000	0.02051618
393.00000000	0.01912882
394.00000000	0.01973374
395.00000000	0.02250940
396.00000000	0.02155566
397.00000000	0.02685192
398.00000000	0.02291174
399.00000000	0.02102836
400.00000000	0.02556573
401.00000000	0.02257191
402.00000000	0.02636349
403.00000000	0.02510014
404.00000000	0.03261894
405.00000000	0.03850601
406.00000000	0.04851372
407.00000000	0.03782058
408.00000000	0.04011784
409.00000000	0.04121021
410.00000000	0.04414397
411.00000000	0.05291375
412.00000000	0.05201554
413.00000000	0.05754643
414.00000000	0.06460873
415.00000000	0.06216485
416.00000000	0.05952948
417.00000000	0.06895018
418.00000000	0.07441254
419.00000000	0.08454581
420.00000000	0.09200644
421.00000000	0.09843136
422.00000000	0.10234400
423.00000000	0.12222878
424.00000000	0.11037531
425.00000000	0.10027818
426.00000000	0.08707639
427.00000000	0.07788586
428.00000000	0.07366283
429.00000000	0.07631603
430.00000000	0.07681181
431.00000000	0.08237112
432.00000000	0.07633741
433.00000000	0.06823276
434.00000000	0.06655677
435.00000000	0.07305023
436.00000000	0.13342276
437.00000000	0.13885303
438.00000000	0.10607847
439.00000000	0.08591668
440.00000000	0.07630442
441.00000000	0.07327162
442.00000000	0.07212227
443.00000000	0.07107054
444.00000000	0.07578082
445.00000000	0.08051840
446.00000000	0.08469547
447.00000000	0.07715707
448.00000000	0.07380268
449.00000000	0.07667445
450.00000000	0.06904323
451.00000000	0.07422295
452.00000000	0.07198935
453.00000000	0.07606490
454.00000000	0.08233765
455.00000000	0.07962396
456.00000000	0.07996585
457.00000000	0.08764898
458.00000000	0.09257832
459.00000000	0.10491137
460.00000000	0.09930135
461.00000000	0.09718124
462.00000000	0.10119609
463.00000000	0.08756750
464.00000000	0.08501356
465.00000000	0.08265369
466.00000000	0.08022969
467.00000000	0.08389351
468.00000000	0.08858251
469.00000000	0.09322128
470.00000000	0.08960281
471.00000000	0.08893384
472.00000000	0.09284737
473.00000000	0.10306764
474.00000000	0.09652362
475.00000000	0.08946729
476.00000000	0.07913390
477.00000000	0.07892605
478.00000000	0.08826717
479.00000000	0.08469159
480.00000000	0.08635116
481.00000000	0.08583241
482.00000000	0.08725942
483.00000000	0.08844126
484.00000000	0.08298480
485.00000000	0.07508114
486.00000000	0.07427007
487.00000000	0.07232925
488.00000000	0.08285210
489.00000000	0.09376157
490.00000000	0.08873923
491.00000000	0.08869294
492.00000000	0.09301014
493.00000000	0.08615502
494.00000000	0.09409604
495.00000000	0.08912812
496.00000000	0.08828965
497.00000000	0.09481105
498.00000000	0.11037022
499.00000000	0.12561721
500.00000000	0.11968552
501.00000000	0.11057869
502.00000000	0.10642793
503.00000000	0.10971741
504.00000000	0.10880347
505.00000000	0.12068711
506.00000000	0.10904370
507.00000000	0.10618589
508.00000000	0.10707558
509.00000000	0.09556120
510.00000000	0.09247216
511.00000000	0.09588211
512.00000000	0.10730864
513.00000000	0.11110578
514.00000000	0.10610418
515.00000000	0.10818554
516.00000000	0.11336421
517.00000000	0.11366058
518.00000000	0.11522510
519.00000000	0.11582026
520.00000000	0.11289738
521.00000000	0.11524717
522.00000000	0.11970422
523.00000000	0.12312297
524.00000000	0.12295443
525.00000000	0.10938416
526.00000000	0.11345267
527.00000000	0.12496221
528.00000000	0.11672417
529.00000000	0.11314020
530.00000000	0.12610389
531.00000000	0.14833967
532.00000000	0.14902724
533.00000000	0.18402297
534.00000000	0.30337744
535.00000000	0.48569784
536.00000000	0.60430353
537.00000000	0.84911880
538.00000000	0.90065583
539.00000000	0.89859759
540.00000000	0.77969997
541.00000000	0.58771573
542.00000000	0.40349436
543.00000000	0.28429627
544.00000000	0.19599802
545.00000000	0.18479651
546.00000000	0.35193419
547.00000000	0.36043958
548.00000000	0.24059890
549.00000000	0.20610881
550.00000000	0.15321958
551.00000000	0.12441974
552.00000000	0.11600588
553.00000000	0.12028914
554.00000000	0.12094310
555.00000000	0.13141632
556.00000000	0.12591932
557.00000000	0.12231624
558.00000000	0.12060407
559.00000000	0.13543741
560.00000000	0.13758130
561.00000000	0.13072053
562.00000000	0.12613731
563.00000000	0.13963669
564.00000000	0.16378022
565.00000000	0.17121816
566.00000000	0.16935576
567.00000000	0.19321340
568.00000000	0.25597136
569.00000000	0.37767919
570.00000000	0.35893451
571.00000000	0.28526259
572.00000000	0.24519599
573.00000000	0.19846453
574.00000000	0.17634043
575.00000000	0.17445336
576.00000000	0.18782620
577.00000000	0.21447445
578.00000000	0.20684693
579.00000000	0.22009833
580.00000000	0.21708845
581.00000000	0.20783809
582.00000000	0.19885426
583.00000000	0.19862788
584.00000000	0.20885509
585.00000000	0.23798667
586.00000000	0.30510797
587.00000000	0.43172702
588.00000000	0.55066160
589.00000000	0.35637308
590.00000000	0.25414030
591.00000000	0.29533262
592.00000000	0.40129825
593.00000000	0.53220263
594.00000000	0.64025972
595.00000000	0.72198514
596.00000000	0.75610409
597.00000000	0.75051127
598.00000000	0.75269744
599.00000000	0.73921755
600.00000000	0.69960033
601.00000000	0.67095278
602.00000000	0.63022631
603.00000000	0.59508359
604.00000000	0.56739913
605.00000000	0.52619080
606.00000000	0.51061597
607.00000000	0.48208796
608.00000000	0.46870745
609.00000000	0.46621471
610.00000000	0.43940094
611.00000000	0.42766325
612.00000000	0.40492665
613.00000000	0.39085804
614.00000000	0.37421907
615.00000000	0.36738317
616.00000000	0.41421313
617.00000000	0.41736860
618.00000000	0.36810442
619.00000000	0.35106719
620.00000000	0.32770651
621.00000000	0.30389142
622.00000000	0.28767956
623.00000000	0.28582561
624.00000000	0.27795897
625.00000000	0.28125475
626.00000000	0.33712623
627.00000000	0.31224918
628.00000000	0.29616461
629.00000000	0.28361436
630.00000000	0.27877700
631.00000000	0.27786943
632.00000000	0.25867451
633.00000000	0.25311714
634.00000000	0.25083427
635.00000000	0.24584087
636.00000000	0.24695927
637.00000000	0.25996511
638.00000000	0.26312032
639.00000000	0.26013876
640.00000000	0.25475579
641.00000000	0.25232611
642.00000000	0.24701362
643.00000000	0.23065905
644.00000000	0.23437913
645.00000000	0.22850279
646.00000000	0.22977790
647.00000000	0.23243173
648.00000000	0.22502260
649.00000000	0.21926532
650.00000000	0.20698866
651.00000000	0.19527074
652.00000000	0.18931339
653.00000000	0.18412105
654.00000000	0.19033086
655.00000000	0.21852435
656.00000000	0.22782780
657.00000000	0.21975900
658.00000000	0.23896468
659.00000000	0.21863523
660.00000000	0.20738646
661.00000000	0.20963404
662.00000000	0.18433447
663.00000000	0.18611826
664.00000000	0.17575192
665.00000000	0.17206676
666.00000000	0.17999142
667.00000000	0.18973751
668.00000000	0.18016415
669.00000000	0.18676047
670.00000000	0.25654603
671.00000000	0.37934770
672.00000000	0.28678297
673.00000000	0.25305537
674.00000000	0.23515950
675.00000000	0.20247134
676.00000000	0.18467708
677.00000000	0.17634941
678.00000000	0.17180399
679.00000000	0.16747326
680.00000000	0.15856203
681.00000000	0.14734963
682.00000000	0.14628831
683.00000000	0.16635206
684.00000000	0.16906925
685.00000000	0.16834474
686.00000000	0.15805461
687.00000000	0.13768419
688.00000000	0.12550470
689.00000000	0.11878633
690.00000000	0.11648598
691.00000000	0.10994171
692.00000000	0.10716860
693.00000000	0.11212785
694.00000000	0.10332820
695.00000000	0.11284897
696.00000000	0.11897726
697.00000000	0.10482141
698.00000000	0.09756244
699.00000000	0.10809986
700.00000000	0.10433378
701.00000000	0.10390741
702.00000000	0.10055371
703.00000000	0.09664213
704.00000000	0.09292977
705.00000000	0.08462209
706.00000000	0.09110990
707.00000000	0.07902001
708.00000000	0.08519288
709.00000000	0.08468355
710.00000000	0.08286269
711.00000000	0.07345736
712.00000000	0.07831994
713.00000000	0.07804286
714.00000000	0.07523110
715.00000000	0.08257402
716.00000000	0.07788926
717.00000000	0.07400457
718.00000000	0.07161302
719.00000000	0.07599754
720.00000000	0.07445455
721.00000000	0.07831211
722.00000000	0.06885841
723.00000000	0.07016922
724.00000000	0.06830918
725.00000000	0.07180027
726.00000000	0.06634634
727.00000000	0.06755354
728.00000000	0.06267027
729.00000000	0.06207627
730.00000000	0.06206055
731.00000000	0.06231599
732.00000000	0.05688258
733.00000000	0.06352248
734.00000000	0.05971112
735.00000000	0.05950112
736.00000000	0.06443349
737.00000000	0.06249647
738.00000000	0.06373156
739.00000000	0.06257887
740.00000000	0.07042632
741.00000000	0.07292112
742.00000000	0.06294216
743.00000000	0.06332359
744.00000000	0.06040670
745.00000000	0.06260835
746.00000000	0.05577414
747.00000000	0.04684874
748.00000000	0.05905248
749.00000000	0.05868079
750.00000000	0.05745591
751.00000000	0.05116523
752.00000000	0.05816036
753.00000000	0.05828151
754.00000000	0.06498466
755.00000000	0.07615680
756.00000000	0.07198002
757.00000000	0.06609159
758.00000000	0.06717724
759.00000000	0.06921776
760.00000000	0.06439610
761.00000000	0.05623216
762.00000000	0.05864587
763.00000000	0.05314512
764.00000000	0.06500202
765.00000000	0.06123597
766.00000000	0.10534633
767.00000000	0.10582712
768.00000000	0.07168644
769.00000000	0.08513139
770.00000000	0.09055816
771.00000000	0.06960465
772.00000000	0.05950606
773.00000000	0.06138763
774.00000000	0.05307273
775.00000000	0.05242110
776.00000000	0.05512270
777.00000000	0.04697867
778.00000000	0.04652624
779.00000000	0.05380034
780.00000000	0.04931388
781.00000000	0.05987039
782.00000000	0.05468626
783.00000000	0.05315422
784.00000000	0.04807948
785.00000000	0.04038725
786.00000000	0.04441575
787.00000000	0.03679009
788.00000000	0.03442733
789.00000000	0.03758561
790.00000000	0.04659116
791.00000000	0.04878593
792.00000000	0.05789728
793.00000000	0.04116470
794.00000000	0.03516046
795.00000000	0.03606011
796.00000000	0.03984661
797.00000000	0.04699738
798.00000000	0.04516014
799.00000000	0.04072269
800.00000000	0.04457774
801.00000000	0.04363823
802.00000000	0.04473210
803.00000000	0.04856076
804.00000000	0.03534023
805.00000000	0.04123811
806.00000000	0.04802292
807.00000000	0.04132206
808.00000000	0.03420798
809.00000000	0.03754015
810.00000000	0.04698582
811.00000000	0.04570253
812.00000000	0.04300328
813.00000000	0.06145524
814.00000000	0.04789986
815.00000000	0.06062102
816.00000000	0.07580780
817.00000000	0.17202212
818.00000000	0.63576056
819.00000000	1.00000000
820.00000000	0.98838100
821.00000000	0.71912266
822.00000000	0.51747211
823.00000000	0.35927869
824.00000000	0.24125669
825.00000000	0.15653342
826.00000000	0.12290411
827.00000000	0.10853333
828.00000000	0.08320103
829.00000000	0.06787648
830.00000000	0.07429640
831.00000000	0.06153905
832.00000000	0.08604299
833.00000000	0.07853936
834.00000000	0.05926018
835.00000000	0.05734064
836.00000000	0.05120062
837.00000000	0.03407881
838.00000000	0.04303313
839.00000000	0.03606079
840.00000000	0.04808215
841.00000000	0.03999926
842.00000000	0.03400586
843.00000000	0.03947702
844.00000000	0.03726683
845.00000000	0.02637924
846.00000000	0.02244593
847.00000000	0.05547962
848.00000000	0.04986916
849.00000000	0.02806347
850.00000000	0.04464031
851.00000000	0.04643662
852.00000000	0.03298276
853.00000000	0.02499694
854.00000000	0.03280010
855.00000000	0.02640456
856.00000000	0.03351012
857.00000000	0.04110519
858.00000000	0.02766893
859.00000000	0.03661012
860.00000000	0.03345424
861.00000000	0.02726810
862.00000000	0.02398493
863.00000000	0.02283360
864.00000000	0.01869955
865.00000000	0.02341203
866.00000000	0.02770600
867.00000000	0.04735601
868.00000000	0.03015111
869.00000000	0.02296931
870.00000000	0.02704275
871.00000000	0.02402296
872.00000000	0.03444620
873.00000000	0.01742329
874.00000000	0.05016726
875.00000000	0.01585238
876.00000000	0.02203048
877.00000000	0.02635378
878.00000000	0.03195326
879.00000000	0.03468014
880.00000000	0.00238553
881.00000000	0.02786935
882.00000000	0.02072902
883.00000000	0.01078574
884.00000000	0.01166076
885.00000000	0.02651869
886.00000000	0.01519880
887.00000000	0.00714836
888.00000000	0.02495988
889.00000000	0.01045418
890.00000000	0.01152918
891.00000000	0.03280083
892.00000000	0.00429503
893.00000000	0.01629929
894.00000000	0.02044402
895.00000000	0.03569404
896.00000000	0.02318619
897.00000000	0.03374064
898.00000000	0.01224246
899.00000000	0.01228943
900.00000000	0.01869889
