#LICA Lamps Spectra Database
#Website 1: https://guaix.fis.ucm.es/lamps_spectra
#Website 2: http://carlostapia.es/lamparas/lamps.html
#Latest update: 2017/12/15
#Tester: Carlos Eugenio Tapia Ayuga
#Correct for Electrical Dark: Yes (JAZA2310)
#Correct for Detector Non-linearity: Yes (JAZA2310)
#Correct for Flux: Yes
#Start wavelength (nm): 300
#End wavelength (nm): 900
#Steps (nm):	1
#Locus: D65 sRGB Gamma 1 CIE1931
#XYZ coordinates: 0.1250	0.1264	0.0725
#xyY coordinates: 0.3859	0.3904	0.1264
#sRGB: 44	30	15
#CCT Lindbloom (K):	3952
#CCT McCamy (K):	3961
#CCT Hernández-Andrés (K):	3948
#Melatonin: 0.471
#Chlorophyll a: 0.050
#Chlorophyll b: 0.513
#Beta Carotene: 0.050
#Manufacturer: Unknown
#Luminance manufacturer: Unknown
#Other data:
#Begin Processed Spectral Data
W	S
300.00000000	0.00000000
301.00000000	0.00000000
302.00000000	0.00000000
303.00000000	0.00000000
304.00000000	0.00469626
305.00000000	0.00000000
306.00000000	0.00000000
307.00000000	0.00000000
308.00000000	0.00000000
309.00000000	0.00000000
310.00000000	0.00000000
311.00000000	0.00000000
312.00000000	0.00000000
313.00000000	0.00000000
314.00000000	0.00000000
315.00000000	0.00000000
316.00000000	0.00000000
317.00000000	0.01325837
318.00000000	0.00853284
319.00000000	0.00000000
320.00000000	0.00000000
321.00000000	0.00000000
322.00000000	0.00000000
323.00000000	0.00000000
324.00000000	0.01286220
325.00000000	0.00000000
326.00000000	0.00533823
327.00000000	0.00000000
328.00000000	0.00000000
329.00000000	0.00000000
330.00000000	0.00000000
331.00000000	0.00000000
332.00000000	0.00363694
333.00000000	0.00000000
334.00000000	0.00000000
335.00000000	0.00000000
336.00000000	0.00000000
337.00000000	0.00000000
338.00000000	0.00000000
339.00000000	0.00000000
340.00000000	0.00181026
341.00000000	0.00000000
342.00000000	0.00000000
343.00000000	0.00553905
344.00000000	0.00000000
345.00000000	0.00666571
346.00000000	0.00122421
347.00000000	0.00000000
348.00000000	0.00000000
349.00000000	0.00000000
350.00000000	0.00000000
351.00000000	0.00000000
352.00000000	0.00000000
353.00000000	0.00000000
354.00000000	0.00000000
355.00000000	0.00000000
356.00000000	0.00000000
357.00000000	0.00000000
358.00000000	0.00000000
359.00000000	0.00313917
360.00000000	0.00000000
361.00000000	0.00000000
362.00000000	0.00000000
363.00000000	0.00000000
364.00000000	0.00000000
365.00000000	0.00091013
366.00000000	0.00000000
367.00000000	0.00025864
368.00000000	0.00014395
369.00000000	0.00000000
370.00000000	0.00000000
371.00000000	0.00000000
372.00000000	0.00000000
373.00000000	0.00000000
374.00000000	0.00000000
375.00000000	0.00000000
376.00000000	0.00000000
377.00000000	0.00039641
378.00000000	0.00030671
379.00000000	0.00000000
380.00000000	0.00000000
381.00000000	0.00000000
382.00000000	0.00000000
383.00000000	0.00000000
384.00000000	0.00000000
385.00000000	0.00239275
386.00000000	0.00000000
387.00000000	0.00000000
388.00000000	0.00114403
389.00000000	0.00019154
390.00000000	0.00000000
391.00000000	0.00036239
392.00000000	0.00000000
393.00000000	0.00000000
394.00000000	0.00000000
395.00000000	0.00000000
396.00000000	0.00000000
397.00000000	0.00000000
398.00000000	0.00000000
399.00000000	0.00000000
400.00000000	0.00061865
401.00000000	0.00136888
402.00000000	0.00555452
403.00000000	0.01435457
404.00000000	0.15992252
405.00000000	0.34131478
406.00000000	0.15183844
407.00000000	0.07062072
408.00000000	0.05402522
409.00000000	0.03089440
410.00000000	0.01655934
411.00000000	0.00649772
412.00000000	0.01206557
413.00000000	0.01174054
414.00000000	0.01046136
415.00000000	0.01334236
416.00000000	0.00887833
417.00000000	0.01745067
418.00000000	0.01629760
419.00000000	0.01692672
420.00000000	0.02194873
421.00000000	0.01764507
422.00000000	0.02050632
423.00000000	0.02387701
424.00000000	0.02348940
425.00000000	0.02391936
426.00000000	0.02434623
427.00000000	0.02832867
428.00000000	0.02963878
429.00000000	0.03167318
430.00000000	0.03509193
431.00000000	0.03422273
432.00000000	0.03248123
433.00000000	0.04074472
434.00000000	0.05391862
435.00000000	0.25405715
436.00000000	0.85774706
437.00000000	0.50506983
438.00000000	0.24633950
439.00000000	0.08594467
440.00000000	0.04913146
441.00000000	0.04525943
442.00000000	0.04223590
443.00000000	0.04457297
444.00000000	0.04271417
445.00000000	0.04395694
446.00000000	0.04185805
447.00000000	0.04115160
448.00000000	0.04202985
449.00000000	0.04013559
450.00000000	0.04223900
451.00000000	0.04246813
452.00000000	0.04252048
453.00000000	0.03968279
454.00000000	0.04144356
455.00000000	0.04225994
456.00000000	0.03734429
457.00000000	0.03538198
458.00000000	0.03581099
459.00000000	0.04008967
460.00000000	0.03706019
461.00000000	0.04140525
462.00000000	0.03867344
463.00000000	0.03621478
464.00000000	0.03503887
465.00000000	0.03698547
466.00000000	0.03255880
467.00000000	0.03526872
468.00000000	0.03315960
469.00000000	0.03086989
470.00000000	0.02912601
471.00000000	0.02848999
472.00000000	0.02580458
473.00000000	0.03066835
474.00000000	0.02611438
475.00000000	0.02764244
476.00000000	0.02785540
477.00000000	0.02391460
478.00000000	0.02526540
479.00000000	0.02665427
480.00000000	0.02738427
481.00000000	0.03412850
482.00000000	0.03593924
483.00000000	0.05073305
484.00000000	0.07253830
485.00000000	0.09562629
486.00000000	0.12562174
487.00000000	0.14595960
488.00000000	0.14860647
489.00000000	0.13722189
490.00000000	0.12687475
491.00000000	0.11113940
492.00000000	0.10518276
493.00000000	0.09444967
494.00000000	0.08277885
495.00000000	0.07514519
496.00000000	0.06875145
497.00000000	0.06027738
498.00000000	0.05333971
499.00000000	0.04630757
500.00000000	0.04071950
501.00000000	0.03366452
502.00000000	0.02722795
503.00000000	0.02217334
504.00000000	0.02018177
505.00000000	0.01675754
506.00000000	0.01401241
507.00000000	0.01094867
508.00000000	0.00908534
509.00000000	0.01177528
510.00000000	0.01185237
511.00000000	0.00875222
512.00000000	0.00878720
513.00000000	0.00762795
514.00000000	0.00977085
515.00000000	0.00961881
516.00000000	0.00724177
517.00000000	0.00796749
518.00000000	0.00642039
519.00000000	0.00587979
520.00000000	0.00575701
521.00000000	0.00617222
522.00000000	0.00409570
523.00000000	0.00386251
524.00000000	0.00488804
525.00000000	0.00521379
526.00000000	0.00551692
527.00000000	0.00624526
528.00000000	0.00567468
529.00000000	0.00827325
530.00000000	0.00655578
531.00000000	0.00828800
532.00000000	0.00920526
533.00000000	0.01659693
534.00000000	0.02541340
535.00000000	0.02382109
536.00000000	0.02755464
537.00000000	0.04218451
538.00000000	0.06945576
539.00000000	0.10068042
540.00000000	0.16559720
541.00000000	0.31189325
542.00000000	0.51843694
543.00000000	0.54876741
544.00000000	0.55764075
545.00000000	0.57649956
546.00000000	1.00000000
547.00000000	0.91519436
548.00000000	0.60690927
549.00000000	0.47403957
550.00000000	0.31178570
551.00000000	0.22468535
552.00000000	0.17171707
553.00000000	0.12936314
554.00000000	0.09712866
555.00000000	0.07268225
556.00000000	0.05371685
557.00000000	0.03865892
558.00000000	0.03128938
559.00000000	0.02262615
560.00000000	0.02140646
561.00000000	0.01837888
562.00000000	0.01617221
563.00000000	0.01414780
564.00000000	0.01151663
565.00000000	0.01158706
566.00000000	0.01103670
567.00000000	0.01022841
568.00000000	0.01000332
569.00000000	0.01124538
570.00000000	0.00918480
571.00000000	0.00858995
572.00000000	0.00861636
573.00000000	0.00579413
574.00000000	0.00908820
575.00000000	0.00941846
576.00000000	0.01999641
577.00000000	0.10741656
578.00000000	0.09504833
579.00000000	0.14122646
580.00000000	0.15128522
581.00000000	0.10943930
582.00000000	0.10934722
583.00000000	0.11836356
584.00000000	0.12950638
585.00000000	0.12680312
586.00000000	0.12279523
587.00000000	0.14595841
588.00000000	0.15926913
589.00000000	0.12020618
590.00000000	0.10349527
591.00000000	0.09190369
592.00000000	0.09011246
593.00000000	0.11617925
594.00000000	0.11651237
595.00000000	0.08897343
596.00000000	0.07510331
597.00000000	0.05965088
598.00000000	0.05836052
599.00000000	0.06847591
600.00000000	0.07866055
601.00000000	0.06661878
602.00000000	0.05423508
603.00000000	0.04454727
604.00000000	0.03664070
605.00000000	0.03598897
606.00000000	0.03984863
607.00000000	0.05040683
608.00000000	0.06329282
609.00000000	0.10186632
610.00000000	0.20734770
611.00000000	0.59991734
612.00000000	0.89078032
613.00000000	0.64851082
614.00000000	0.55158655
615.00000000	0.44570139
616.00000000	0.30233750
617.00000000	0.20808175
618.00000000	0.15245899
619.00000000	0.12010720
620.00000000	0.10539572
621.00000000	0.10323449
622.00000000	0.10473257
623.00000000	0.10775777
624.00000000	0.11209379
625.00000000	0.11335559
626.00000000	0.11382743
627.00000000	0.11290136
628.00000000	0.10552159
629.00000000	0.09490533
630.00000000	0.10216113
631.00000000	0.14034393
632.00000000	0.12686380
633.00000000	0.08850659
634.00000000	0.06154728
635.00000000	0.04113233
636.00000000	0.03033380
637.00000000	0.02392983
638.00000000	0.02022008
639.00000000	0.01656481
640.00000000	0.01483331
641.00000000	0.01510028
642.00000000	0.01360148
643.00000000	0.01698763
644.00000000	0.01672257
645.00000000	0.01690650
646.00000000	0.01419396
647.00000000	0.01579578
648.00000000	0.01526374
649.00000000	0.02097221
650.00000000	0.02695883
651.00000000	0.03966875
652.00000000	0.03265874
653.00000000	0.03171791
654.00000000	0.02798008
655.00000000	0.02390413
656.00000000	0.02093271
657.00000000	0.02111664
658.00000000	0.02105311
659.00000000	0.01833129
660.00000000	0.01307396
661.00000000	0.01471600
662.00000000	0.01965211
663.00000000	0.02633186
664.00000000	0.02274226
665.00000000	0.01793750
666.00000000	0.01554356
667.00000000	0.01258785
668.00000000	0.01246340
669.00000000	0.01067598
670.00000000	0.01365549
671.00000000	0.01329002
672.00000000	0.01069811
673.00000000	0.01140313
674.00000000	0.01193446
675.00000000	0.00677540
676.00000000	0.00848977
677.00000000	0.00771123
678.00000000	0.01063791
679.00000000	0.01176148
680.00000000	0.00692768
681.00000000	0.01208912
682.00000000	0.00446927
683.00000000	0.01013181
684.00000000	0.00695576
685.00000000	0.00710043
686.00000000	0.01290955
687.00000000	0.01412376
688.00000000	0.02361599
689.00000000	0.02209625
690.00000000	0.01519926
691.00000000	0.01211101
692.00000000	0.00805886
693.00000000	0.01004734
694.00000000	0.01954123
695.00000000	0.01312227
696.00000000	0.00056821
697.00000000	0.00932733
698.00000000	0.00200728
699.00000000	0.00376972
700.00000000	0.00000000
701.00000000	0.00563946
702.00000000	0.00203203
703.00000000	0.00209294
704.00000000	0.00924381
705.00000000	0.00786993
706.00000000	0.02027695
707.00000000	0.04498984
708.00000000	0.05402474
709.00000000	0.06550402
710.00000000	0.07074779
711.00000000	0.04362501
712.00000000	0.05381868
713.00000000	0.06026120
714.00000000	0.03471360
715.00000000	0.02167700
716.00000000	0.01016560
717.00000000	0.00862564
718.00000000	0.00554857
719.00000000	0.00263973
720.00000000	0.00210388
721.00000000	0.00390082
722.00000000	0.00073524
723.00000000	0.00429295
724.00000000	0.00064102
725.00000000	0.00066124
726.00000000	0.00000000
727.00000000	0.00000000
728.00000000	0.00000000
729.00000000	0.00028815
730.00000000	0.00000000
731.00000000	0.00369952
732.00000000	0.00071145
733.00000000	0.00000000
734.00000000	0.00000000
735.00000000	0.00309158
736.00000000	0.00079044
737.00000000	0.00000000
738.00000000	0.00000000
739.00000000	0.00000000
740.00000000	0.00000000
741.00000000	0.00000000
742.00000000	0.00000000
743.00000000	0.00172103
744.00000000	0.00000000
745.00000000	0.00386394
746.00000000	0.00000000
747.00000000	0.00159612
748.00000000	0.00000000
749.00000000	0.00000000
750.00000000	0.00034335
751.00000000	0.00478216
752.00000000	0.00000000
753.00000000	0.00000000
754.00000000	0.00000000
755.00000000	0.00140457
756.00000000	0.00000000
757.00000000	0.00387346
758.00000000	0.00000000
759.00000000	0.00000000
760.00000000	0.00000000
761.00000000	0.00000000
762.00000000	0.00000000
763.00000000	0.00000000
764.00000000	0.00113332
765.00000000	0.00498893
766.00000000	0.00047136
767.00000000	0.00000000
768.00000000	0.00152021
769.00000000	0.00195803
770.00000000	0.00014205
771.00000000	0.00000000
772.00000000	0.00000000
773.00000000	0.00000000
774.00000000	0.00000000
775.00000000	0.00000000
776.00000000	0.00000000
777.00000000	0.00000000
778.00000000	0.00000000
779.00000000	0.00000000
780.00000000	0.00000000
781.00000000	0.00136246
782.00000000	0.00000000
783.00000000	0.00000000
784.00000000	0.00346015
785.00000000	0.00109858
786.00000000	0.00000000
787.00000000	0.00000000
788.00000000	0.00709876
789.00000000	0.00000000
790.00000000	0.00000000
791.00000000	0.00000000
792.00000000	0.00000000
793.00000000	0.00000000
794.00000000	0.00000000
795.00000000	0.00000000
796.00000000	0.00000000
797.00000000	0.00182454
798.00000000	0.00000000
799.00000000	0.00000000
800.00000000	0.00000000
801.00000000	0.00000000
802.00000000	0.00000000
803.00000000	0.00262307
804.00000000	0.00000000
805.00000000	0.00000000
806.00000000	0.00000000
807.00000000	0.00000000
808.00000000	0.00000000
809.00000000	0.01824944
810.00000000	0.00579484
811.00000000	0.00681038
812.00000000	0.00015323
813.00000000	0.00000000
814.00000000	0.00000000
815.00000000	0.00000000
816.00000000	0.00000000
817.00000000	0.00000000
818.00000000	0.00000000
819.00000000	0.00000000
820.00000000	0.00000000
821.00000000	0.00000000
822.00000000	0.00000000
823.00000000	0.00042901
824.00000000	0.00000000
825.00000000	0.00000000
826.00000000	0.00000000
827.00000000	0.00072882
828.00000000	0.00000000
829.00000000	0.00940133
830.00000000	0.00000000
831.00000000	0.00000000
832.00000000	0.00055226
833.00000000	0.00903680
834.00000000	0.00000000
835.00000000	0.00000000
836.00000000	0.00000000
837.00000000	0.00000000
838.00000000	0.00000000
839.00000000	0.00000000
840.00000000	0.00000000
841.00000000	0.00000000
842.00000000	0.00000000
843.00000000	0.00000000
844.00000000	0.00561329
845.00000000	0.00000000
846.00000000	0.00000000
847.00000000	0.00000000
848.00000000	0.00000000
849.00000000	0.00012064
850.00000000	0.00240678
851.00000000	0.00000000
852.00000000	0.00000000
853.00000000	0.00000000
854.00000000	0.00000000
855.00000000	0.00000000
856.00000000	0.00109501
857.00000000	0.00000000
858.00000000	0.00000000
859.00000000	0.00000000
860.00000000	0.00000000
861.00000000	0.00000000
862.00000000	0.00000000
863.00000000	0.00000000
864.00000000	0.00000000
865.00000000	0.00000000
866.00000000	0.00000000
867.00000000	0.00000000
868.00000000	0.00000000
869.00000000	0.00132296
870.00000000	0.01846073
871.00000000	0.00000000
872.00000000	0.00000000
873.00000000	0.00000000
874.00000000	0.00000000
875.00000000	0.00000000
876.00000000	0.00000000
877.00000000	0.00000000
878.00000000	0.01632354
879.00000000	0.00000000
880.00000000	0.00236419
881.00000000	0.00000000
882.00000000	0.00000000
883.00000000	0.00000000
884.00000000	0.00000000
885.00000000	0.00000000
886.00000000	0.00000000
887.00000000	0.00000000
888.00000000	0.00518952
889.00000000	0.00000000
890.00000000	0.00445975
891.00000000	0.00000000
892.00000000	0.00000000
893.00000000	0.00000000
894.00000000	0.00000000
895.00000000	0.00000000
896.00000000	0.00000000
897.00000000	0.00000000
898.00000000	0.02758867
899.00000000	0.00000000
900.00000000	0.02067931
