#LICA Lamps Spectra Database
#Website 1: https://guaix.fis.ucm.es/lamps_spectra
#Website 2: http://carlostapia.es/lamparas/lamps.html
#Latest update: 2017/12/15
#Tester: Carlos Eugenio Tapia Ayuga
#Correct for Electrical Dark: Yes (JAZA2310)
#Correct for Detector Non-linearity: Yes (JAZA2310)
#Correct for Flux: Yes
#Start wavelength (nm): 300
#End wavelength (nm): 900
#Steps (nm):	1
#Locus: D65 sRGB Gamma 1 CIE1931
#XYZ coordinates: 0.4184	0.3832	0.1421
#xyY coordinates: 0.4434	0.4060	0.3832
#sRGB: 177	81	24
#CCT Lindbloom (K):	2911
#CCT McCamy (K):	2913
#CCT Hernández-Andrés (K):	2853
#Melatonin: 0.383
#Chlorophyll a: 3.056
#Chlorophyll b: 0.588
#Beta Carotene: 3.044
#Manufacturer: Philips
#Luminance manufacturer: Unknown
#Other data:
#Begin Processed Spectral Data
W	S
300.00000000	0.01666028
301.00000000	0.01682130
302.00000000	0.01932958
303.00000000	0.02002212
304.00000000	0.01680502
305.00000000	0.01758797
306.00000000	0.01431393
307.00000000	0.01910919
308.00000000	0.01102124
309.00000000	0.01989864
310.00000000	0.01807675
311.00000000	0.01487772
312.00000000	0.02120374
313.00000000	0.01913388
314.00000000	0.02089999
315.00000000	0.01474896
316.00000000	0.02020059
317.00000000	0.01805859
318.00000000	0.02468017
319.00000000	0.02279746
320.00000000	0.01743267
321.00000000	0.02799120
322.00000000	0.01899234
323.00000000	0.02028296
324.00000000	0.02581195
325.00000000	0.02298824
326.00000000	0.02678608
327.00000000	0.02369404
328.00000000	0.02667455
329.00000000	0.02862871
330.00000000	0.02625022
331.00000000	0.02754054
332.00000000	0.03328885
333.00000000	0.03212567
334.00000000	0.03175775
335.00000000	0.03245447
336.00000000	0.02969760
337.00000000	0.03515364
338.00000000	0.03437271
339.00000000	0.03434779
340.00000000	0.02970367
341.00000000	0.03807755
342.00000000	0.03393730
343.00000000	0.03820251
344.00000000	0.03457197
345.00000000	0.03944714
346.00000000	0.03562700
347.00000000	0.03791246
348.00000000	0.03794245
349.00000000	0.03376798
350.00000000	0.03645042
351.00000000	0.03803391
352.00000000	0.03782116
353.00000000	0.04046783
354.00000000	0.04317175
355.00000000	0.04103413
356.00000000	0.04228465
357.00000000	0.04272961
358.00000000	0.04191464
359.00000000	0.04322778
360.00000000	0.04349699
361.00000000	0.04400574
362.00000000	0.04304921
363.00000000	0.04517295
364.00000000	0.04209274
365.00000000	0.04343327
366.00000000	0.04470284
367.00000000	0.04631344
368.00000000	0.04400708
369.00000000	0.04706765
370.00000000	0.04861665
371.00000000	0.04669941
372.00000000	0.04886496
373.00000000	0.04940231
374.00000000	0.04863362
375.00000000	0.05043726
376.00000000	0.04989658
377.00000000	0.04742761
378.00000000	0.05122983
379.00000000	0.04996809
380.00000000	0.05046828
381.00000000	0.05464340
382.00000000	0.05392763
383.00000000	0.05459771
384.00000000	0.05842128
385.00000000	0.05771683
386.00000000	0.05732436
387.00000000	0.05806603
388.00000000	0.06217669
389.00000000	0.06028419
390.00000000	0.06063916
391.00000000	0.06226920
392.00000000	0.06605567
393.00000000	0.06573999
394.00000000	0.06299633
395.00000000	0.06795056
396.00000000	0.06499200
397.00000000	0.06956230
398.00000000	0.06943829
399.00000000	0.06909458
400.00000000	0.07392471
401.00000000	0.07628280
402.00000000	0.07709524
403.00000000	0.07885210
404.00000000	0.08142515
405.00000000	0.08036384
406.00000000	0.08189314
407.00000000	0.08197840
408.00000000	0.08270150
409.00000000	0.08821826
410.00000000	0.08855914
411.00000000	0.08833744
412.00000000	0.09343034
413.00000000	0.09140791
414.00000000	0.09613931
415.00000000	0.09383490
416.00000000	0.09782806
417.00000000	0.09859583
418.00000000	0.09964477
419.00000000	0.10032853
420.00000000	0.10308768
421.00000000	0.10655869
422.00000000	0.10437694
423.00000000	0.10989665
424.00000000	0.10981467
425.00000000	0.11217988
426.00000000	0.11461043
427.00000000	0.11781033
428.00000000	0.11977763
429.00000000	0.12038177
430.00000000	0.12266826
431.00000000	0.12749376
432.00000000	0.12492525
433.00000000	0.12851224
434.00000000	0.13009543
435.00000000	0.13016204
436.00000000	0.13353957
437.00000000	0.13595635
438.00000000	0.13659800
439.00000000	0.14039245
440.00000000	0.13946320
441.00000000	0.14116744
442.00000000	0.14343255
443.00000000	0.14762127
444.00000000	0.14835812
445.00000000	0.15030030
446.00000000	0.15391946
447.00000000	0.15358110
448.00000000	0.16005096
449.00000000	0.16287527
450.00000000	0.16075648
451.00000000	0.16551851
452.00000000	0.16916102
453.00000000	0.16938280
454.00000000	0.17330870
455.00000000	0.17089139
456.00000000	0.17481128
457.00000000	0.17508271
458.00000000	0.17740098
459.00000000	0.18054005
460.00000000	0.18137274
461.00000000	0.18756216
462.00000000	0.18752265
463.00000000	0.18778970
464.00000000	0.19553815
465.00000000	0.19379029
466.00000000	0.19652956
467.00000000	0.20110264
468.00000000	0.20418749
469.00000000	0.20167950
470.00000000	0.20858542
471.00000000	0.21028854
472.00000000	0.21488208
473.00000000	0.21492441
474.00000000	0.21588785
475.00000000	0.22248517
476.00000000	0.22372055
477.00000000	0.22952039
478.00000000	0.22737800
479.00000000	0.22933181
480.00000000	0.23472479
481.00000000	0.23866423
482.00000000	0.23617514
483.00000000	0.24376995
484.00000000	0.24426378
485.00000000	0.24511157
486.00000000	0.25332835
487.00000000	0.25280952
488.00000000	0.25604416
489.00000000	0.25857235
490.00000000	0.26039235
491.00000000	0.26215532
492.00000000	0.26487111
493.00000000	0.26771324
494.00000000	0.27001086
495.00000000	0.27607757
496.00000000	0.27498049
497.00000000	0.28004275
498.00000000	0.28199018
499.00000000	0.28312472
500.00000000	0.28483818
501.00000000	0.28869383
502.00000000	0.29390468
503.00000000	0.29730675
504.00000000	0.29882866
505.00000000	0.29857405
506.00000000	0.30478919
507.00000000	0.30530571
508.00000000	0.31034705
509.00000000	0.31399071
510.00000000	0.31559090
511.00000000	0.32065100
512.00000000	0.32464059
513.00000000	0.32525321
514.00000000	0.33165197
515.00000000	0.33185319
516.00000000	0.33462664
517.00000000	0.33669545
518.00000000	0.33775338
519.00000000	0.33937266
520.00000000	0.34521035
521.00000000	0.34749531
522.00000000	0.34952748
523.00000000	0.35137704
524.00000000	0.35737215
525.00000000	0.36059566
526.00000000	0.36204424
527.00000000	0.36523160
528.00000000	0.37019392
529.00000000	0.37386450
530.00000000	0.37757501
531.00000000	0.37566047
532.00000000	0.38171569
533.00000000	0.38155326
534.00000000	0.38641896
535.00000000	0.38994135
536.00000000	0.38981258
537.00000000	0.39483298
538.00000000	0.39648394
539.00000000	0.39786702
540.00000000	0.40505795
541.00000000	0.40751619
542.00000000	0.41068054
543.00000000	0.41710397
544.00000000	0.41752851
545.00000000	0.42209099
546.00000000	0.42149869
547.00000000	0.42400883
548.00000000	0.42708937
549.00000000	0.42870726
550.00000000	0.43361882
551.00000000	0.43913879
552.00000000	0.44242596
553.00000000	0.44949295
554.00000000	0.44903042
555.00000000	0.45116774
556.00000000	0.45922763
557.00000000	0.46283086
558.00000000	0.46658583
559.00000000	0.47167639
560.00000000	0.47563004
561.00000000	0.47942587
562.00000000	0.47887765
563.00000000	0.48039371
564.00000000	0.48215554
565.00000000	0.48577284
566.00000000	0.49006243
567.00000000	0.49478055
568.00000000	0.49674110
569.00000000	0.49760659
570.00000000	0.49782003
571.00000000	0.50304206
572.00000000	0.50365775
573.00000000	0.51007730
574.00000000	0.51314718
575.00000000	0.51224511
576.00000000	0.51670893
577.00000000	0.52077938
578.00000000	0.52429487
579.00000000	0.52328020
580.00000000	0.52340201
581.00000000	0.52701010
582.00000000	0.53181787
583.00000000	0.53958888
584.00000000	0.54291827
585.00000000	0.55086511
586.00000000	0.55063227
587.00000000	0.55836548
588.00000000	0.55859946
589.00000000	0.55744172
590.00000000	0.56640708
591.00000000	0.56992830
592.00000000	0.56936694
593.00000000	0.57609058
594.00000000	0.57942854
595.00000000	0.57973492
596.00000000	0.58273499
597.00000000	0.58395415
598.00000000	0.59061100
599.00000000	0.59459617
600.00000000	0.60615763
601.00000000	0.59614817
602.00000000	0.60845431
603.00000000	0.61112812
604.00000000	0.61399208
605.00000000	0.61084656
606.00000000	0.61791974
607.00000000	0.61442926
608.00000000	0.61669012
609.00000000	0.61966749
610.00000000	0.62567216
611.00000000	0.63007586
612.00000000	0.63074021
613.00000000	0.63300924
614.00000000	0.63429888
615.00000000	0.65060804
616.00000000	0.65005620
617.00000000	0.65770613
618.00000000	0.66345203
619.00000000	0.66368012
620.00000000	0.67809931
621.00000000	0.67050760
622.00000000	0.66975471
623.00000000	0.67667360
624.00000000	0.67637591
625.00000000	0.68308812
626.00000000	0.68521309
627.00000000	0.69367965
628.00000000	0.69487734
629.00000000	0.69213222
630.00000000	0.69601481
631.00000000	0.69693944
632.00000000	0.70990107
633.00000000	0.70645740
634.00000000	0.71562800
635.00000000	0.71338981
636.00000000	0.71419608
637.00000000	0.72007679
638.00000000	0.72450068
639.00000000	0.72300174
640.00000000	0.71912577
641.00000000	0.73416871
642.00000000	0.73658630
643.00000000	0.73859654
644.00000000	0.73836834
645.00000000	0.74040260
646.00000000	0.74055307
647.00000000	0.75281576
648.00000000	0.75964007
649.00000000	0.76559546
650.00000000	0.76130163
651.00000000	0.75804443
652.00000000	0.76648414
653.00000000	0.77094629
654.00000000	0.76968280
655.00000000	0.77116389
656.00000000	0.77570004
657.00000000	0.77277920
658.00000000	0.77318080
659.00000000	0.78938577
660.00000000	0.78787953
661.00000000	0.79512369
662.00000000	0.80078863
663.00000000	0.79658636
664.00000000	0.80031935
665.00000000	0.80072110
666.00000000	0.79618899
667.00000000	0.80212245
668.00000000	0.80622280
669.00000000	0.80130652
670.00000000	0.81472688
671.00000000	0.82585309
672.00000000	0.81824966
673.00000000	0.83276173
674.00000000	0.82218062
675.00000000	0.82582880
676.00000000	0.83170370
677.00000000	0.83712032
678.00000000	0.83018063
679.00000000	0.84067547
680.00000000	0.84039867
681.00000000	0.84775706
682.00000000	0.84653690
683.00000000	0.85109068
684.00000000	0.85376084
685.00000000	0.86037027
686.00000000	0.85708494
687.00000000	0.86231817
688.00000000	0.85883727
689.00000000	0.86271234
690.00000000	0.86273199
691.00000000	0.86372968
692.00000000	0.87171351
693.00000000	0.87164774
694.00000000	0.87928630
695.00000000	0.87694685
696.00000000	0.88743226
697.00000000	0.88089902
698.00000000	0.88644720
699.00000000	0.89483445
700.00000000	0.89621908
701.00000000	0.91110160
702.00000000	0.90982871
703.00000000	0.90547683
704.00000000	0.91938974
705.00000000	0.91542347
706.00000000	0.90805595
707.00000000	0.91755450
708.00000000	0.91600794
709.00000000	0.92370244
710.00000000	0.93982048
711.00000000	0.93758518
712.00000000	0.93745475
713.00000000	0.93350091
714.00000000	0.92873028
715.00000000	0.94069047
716.00000000	0.93797868
717.00000000	0.94420989
718.00000000	0.94170712
719.00000000	0.95256075
720.00000000	0.95389507
721.00000000	0.95040718
722.00000000	0.95376275
723.00000000	0.96352824
724.00000000	0.97957021
725.00000000	0.96831648
726.00000000	0.97235463
727.00000000	0.97657696
728.00000000	0.97799582
729.00000000	0.97373441
730.00000000	0.98738715
731.00000000	0.99257556
732.00000000	0.98425744
733.00000000	0.98715037
734.00000000	0.97562932
735.00000000	0.98636780
736.00000000	1.00186600
737.00000000	1.00085428
738.00000000	1.00290286
739.00000000	0.99296372
740.00000000	1.01189958
741.00000000	1.00572857
742.00000000	1.01418275
743.00000000	0.99848804
744.00000000	0.99501314
745.00000000	0.99206921
746.00000000	0.99895103
747.00000000	0.97214882
748.00000000	0.98193095
749.00000000	0.98946159
750.00000000	0.99191573
751.00000000	1.00958453
752.00000000	0.99701433
753.00000000	0.99407146
754.00000000	1.00902321
755.00000000	1.00123163
756.00000000	1.01541498
757.00000000	1.02840615
758.00000000	1.01521828
759.00000000	1.03174009
760.00000000	1.03013436
761.00000000	1.02866145
762.00000000	1.04070082
763.00000000	1.04255883
764.00000000	1.03407117
765.00000000	1.03058602
766.00000000	1.03487503
767.00000000	1.03462068
768.00000000	1.04793290
769.00000000	1.04436488
770.00000000	1.03289502
771.00000000	1.04608101
772.00000000	1.03647479
773.00000000	1.03433753
774.00000000	1.04736175
775.00000000	1.05141966
776.00000000	1.04859237
777.00000000	1.06787805
778.00000000	1.05527393
779.00000000	1.05864689
780.00000000	1.06339844
781.00000000	1.06126776
782.00000000	1.07475506
783.00000000	1.09253633
784.00000000	1.07007833
785.00000000	1.09864749
786.00000000	1.10059206
787.00000000	1.09991186
788.00000000	1.10254853
789.00000000	1.11135472
790.00000000	1.10666036
791.00000000	1.11063903
792.00000000	1.11709103
793.00000000	1.12404035
794.00000000	1.08933921
795.00000000	1.10819095
796.00000000	1.10424974
797.00000000	1.09427662
798.00000000	1.09875421
799.00000000	1.10808670
800.00000000	1.11370224
801.00000000	1.12469635
802.00000000	1.11332726
803.00000000	1.10414646
804.00000000	1.10403447
805.00000000	1.10355987
806.00000000	1.10180285
807.00000000	1.09303479
808.00000000	1.12142028
809.00000000	1.10665936
810.00000000	1.11296496
811.00000000	1.12101742
812.00000000	1.12915936
813.00000000	1.12558607
814.00000000	1.12218024
815.00000000	1.12752518
816.00000000	1.12709542
817.00000000	1.13081721
818.00000000	1.12679216
819.00000000	1.14150309
820.00000000	1.14158635
821.00000000	1.14487778
822.00000000	1.15447657
823.00000000	1.16793915
824.00000000	1.18740515
825.00000000	1.15603009
826.00000000	1.17167343
827.00000000	1.17379058
828.00000000	1.17977693
829.00000000	1.17428480
830.00000000	1.17354906
831.00000000	1.15661955
832.00000000	1.16341557
833.00000000	1.14488016
834.00000000	1.17177703
835.00000000	1.18116552
836.00000000	1.16309305
837.00000000	1.16472753
838.00000000	1.15272472
839.00000000	1.15072589
840.00000000	1.15637220
841.00000000	1.17489175
842.00000000	1.16467928
843.00000000	1.15974315
844.00000000	1.16629501
845.00000000	1.17401334
846.00000000	1.17675643
847.00000000	1.19149018
848.00000000	1.17902004
849.00000000	1.18151286
850.00000000	1.15986138
851.00000000	1.16662787
852.00000000	1.16102449
853.00000000	1.17061019
854.00000000	1.17553704
855.00000000	1.19295290
856.00000000	1.17823974
857.00000000	1.18982768
858.00000000	1.16289898
859.00000000	1.18987322
860.00000000	1.20682887
861.00000000	1.20339632
862.00000000	1.20334797
863.00000000	1.20768229
864.00000000	1.21726943
865.00000000	1.22241083
866.00000000	1.21912315
867.00000000	1.23427035
868.00000000	1.25948689
869.00000000	1.22879593
870.00000000	1.22288085
871.00000000	1.21476208
872.00000000	1.23793384
873.00000000	1.24097065
874.00000000	1.21730062
875.00000000	1.25468825
876.00000000	1.25777033
877.00000000	1.25363990
878.00000000	1.25006907
879.00000000	1.22489451
880.00000000	1.22509931
881.00000000	1.23354893
882.00000000	1.21816720
883.00000000	1.26139622
884.00000000	1.28116738
885.00000000	1.28067161
886.00000000	1.28132064
887.00000000	1.29000131
888.00000000	1.29533651
889.00000000	1.27166740
890.00000000	1.29120448
891.00000000	1.28036723
892.00000000	1.30532456
893.00000000	1.28620802
894.00000000	1.26447899
895.00000000	1.28123018
896.00000000	1.31638582
897.00000000	1.27488185
898.00000000	1.31544351
899.00000000	1.30711368
900.00000000	1.29400936
