#LICA Lamps Spectra Database
#Website 1: https://guaix.fis.ucm.es/lamps_spectra
#Website 2: http://carlostapia.es/lamparas/lamps.html
#Latest update: 2017/06/28
#Tester: Carlos Eugenio Tapia Ayuga
#Correct for Electrical Dark: Yes (JAZA2310)
#Correct for Detector Non-linearity: Yes (JAZA2310)
#Correct for Flux: Yes
#Start wavelength (nm): 300
#End wavelength (nm): 900
#Steps (nm):	1
#Locus: D65 sRGB Gamma 1 CIE1931
#XYZ coordinates: 0.1728	0.1320	0.0160
#xyY coordinates: 0.5387	0.4114	01320
#sRGB: 89	21	0
#CCT Lindbloom (K):	1895
#CCT McCamy (K):	1882
#CCT Hernández-Andrés (K):	1538
#Melatonin: 0.122
#Chlorophyll a: 0.232
#Chlorophyll b: 0.350
#Beta Carotene: 0.233
#Manufacturer: Unknown
#Luminance manufacturer: Unknown
#Other data: Áger streetlamps.
#Begin Processed Spectral Data
W	S
300.00000000	0.00000000
301.00000000	0.00000000
302.00000000	0.00000000
303.00000000	0.00077017
304.00000000	0.00000000
305.00000000	0.00000000
306.00000000	0.00000000
307.00000000	0.00000000
308.00000000	0.00000555
309.00000000	0.00000000
310.00000000	0.00000000
311.00000000	0.00753097
312.00000000	0.00000000
313.00000000	0.00000036
314.00000000	0.00000000
315.00000000	0.00065781
316.00000000	0.00148317
317.00000000	0.00000000
318.00000000	0.00005440
319.00000000	0.00000000
320.00000000	0.00000000
321.00000000	0.00000000
322.00000000	0.00023979
323.00000000	0.00000000
324.00000000	0.00075583
325.00000000	0.00000000
326.00000000	0.00002368
327.00000000	0.00219016
328.00000000	0.00000000
329.00000000	0.00035314
330.00000000	0.00030408
331.00000000	0.00000000
332.00000000	0.00000000
333.00000000	0.00325978
334.00000000	0.00415146
335.00000000	0.00160621
336.00000000	0.00599738
337.00000000	0.00005178
338.00000000	0.00000000
339.00000000	0.00063870
340.00000000	0.00033045
341.00000000	0.00000000
342.00000000	0.00000000
343.00000000	0.00039405
344.00000000	0.00000000
345.00000000	0.00016075
346.00000000	0.00004734
347.00000000	0.00014732
348.00000000	0.00277002
349.00000000	0.00001549
350.00000000	0.00000000
351.00000000	0.00039253
352.00000000	0.00084831
353.00000000	0.00004194
354.00000000	0.00002703
355.00000000	0.00000000
356.00000000	0.00289517
357.00000000	0.00105661
358.00000000	0.00028521
359.00000000	0.00000000
360.00000000	0.00191297
361.00000000	0.00083243
362.00000000	0.00000000
363.00000000	0.00145659
364.00000000	0.00004973
365.00000000	0.00100103
366.00000000	0.00186742
367.00000000	0.00027732
368.00000000	0.00074269
369.00000000	0.00146647
370.00000000	0.00304990
371.00000000	0.00224204
372.00000000	0.00051320
373.00000000	0.00052769
374.00000000	0.00355831
375.00000000	0.00174469
376.00000000	0.00007333
377.00000000	0.00049387
378.00000000	0.00082199
379.00000000	0.00067741
380.00000000	0.00000025
381.00000000	0.00054332
382.00000000	0.00000000
383.00000000	0.00333580
384.00000000	0.00213358
385.00000000	0.00255006
386.00000000	0.00321291
387.00000000	0.00000431
388.00000000	0.00050507
389.00000000	0.00451520
390.00000000	0.00138671
391.00000000	0.00057602
392.00000000	0.00111111
393.00000000	0.00010295
394.00000000	0.00315524
395.00000000	0.00504618
396.00000000	0.00308235
397.00000000	0.00486979
398.00000000	0.00305621
399.00000000	0.00338394
400.00000000	0.00472155
401.00000000	0.00569896
402.00000000	0.00402201
403.00000000	0.00512336
404.00000000	0.00339422
405.00000000	0.00959277
406.00000000	0.00797704
407.00000000	0.00694134
408.00000000	0.00767661
409.00000000	0.00498908
410.00000000	0.00346647
411.00000000	0.00521969
412.00000000	0.00799749
413.00000000	0.00451070
414.00000000	0.00462713
415.00000000	0.00765426
416.00000000	0.00888090
417.00000000	0.00537442
418.00000000	0.00496833
419.00000000	0.00676434
420.00000000	0.01063238
421.00000000	0.00617551
422.00000000	0.00806446
423.00000000	0.01100839
424.00000000	0.00771649
425.00000000	0.00722785
426.00000000	0.00881289
427.00000000	0.00804831
428.00000000	0.00783840
429.00000000	0.01053947
430.00000000	0.00963348
431.00000000	0.00841278
432.00000000	0.00917930
433.00000000	0.00996087
434.00000000	0.00930802
435.00000000	0.00979844
436.00000000	0.01394916
437.00000000	0.01734436
438.00000000	0.01229192
439.00000000	0.01104457
440.00000000	0.01389438
441.00000000	0.01603189
442.00000000	0.01102834
443.00000000	0.01138023
444.00000000	0.01141622
445.00000000	0.00701378
446.00000000	0.01280528
447.00000000	0.01419677
448.00000000	0.01408719
449.00000000	0.01644820
450.00000000	0.02324415
451.00000000	0.02538480
452.00000000	0.01968719
453.00000000	0.02051726
454.00000000	0.01844780
455.00000000	0.01992817
456.00000000	0.01553442
457.00000000	0.01228604
458.00000000	0.01222210
459.00000000	0.01034084
460.00000000	0.01256250
461.00000000	0.01006382
462.00000000	0.01126210
463.00000000	0.01067836
464.00000000	0.01610079
465.00000000	0.01654781
466.00000000	0.02184923
467.00000000	0.04070193
468.00000000	0.05264055
469.00000000	0.04028510
470.00000000	0.03039055
471.00000000	0.02622581
472.00000000	0.02156674
473.00000000	0.01763695
474.00000000	0.01381755
475.00000000	0.01257513
476.00000000	0.01833822
477.00000000	0.01308894
478.00000000	0.00883551
479.00000000	0.00580204
480.00000000	0.00320988
481.00000000	0.00440455
482.00000000	0.00294175
483.00000000	0.00521472
484.00000000	0.00427443
485.00000000	0.00400220
486.00000000	0.00345756
487.00000000	0.00331498
488.00000000	0.00398295
489.00000000	0.00414129
490.00000000	0.00545982
491.00000000	0.00711327
492.00000000	0.00920190
493.00000000	0.00770583
494.00000000	0.00764102
495.00000000	0.01088625
496.00000000	0.01375404
497.00000000	0.02999577
498.00000000	0.08218964
499.00000000	0.14973776
500.00000000	0.11600099
501.00000000	0.05979434
502.00000000	0.03233861
503.00000000	0.01789368
504.00000000	0.01158312
505.00000000	0.00788051
506.00000000	0.00675753
507.00000000	0.00586440
508.00000000	0.00676333
509.00000000	0.00454011
510.00000000	0.00545401
511.00000000	0.00418018
512.00000000	0.00628029
513.00000000	0.00518538
514.00000000	0.00679087
515.00000000	0.01653613
516.00000000	0.04499121
517.00000000	0.02710346
518.00000000	0.01344071
519.00000000	0.00894559
520.00000000	0.00681433
521.00000000	0.00568931
522.00000000	0.00505474
523.00000000	0.00561205
524.00000000	0.00464128
525.00000000	0.00477665
526.00000000	0.00602901
527.00000000	0.00635097
528.00000000	0.00578220
529.00000000	0.00523822
530.00000000	0.00533911
531.00000000	0.00712252
532.00000000	0.00622592
533.00000000	0.00597869
534.00000000	0.00746328
535.00000000	0.00701538
536.00000000	0.00664437
537.00000000	0.00687052
538.00000000	0.00722104
539.00000000	0.00745701
540.00000000	0.00744380
541.00000000	0.00730377
542.00000000	0.00748196
543.00000000	0.00745403
544.00000000	0.00809813
545.00000000	0.00935922
546.00000000	0.01353613
547.00000000	0.01678304
548.00000000	0.01601850
549.00000000	0.02159046
550.00000000	0.02739334
551.00000000	0.03735044
552.00000000	0.04033059
553.00000000	0.04443599
554.00000000	0.04906724
555.00000000	0.04919181
556.00000000	0.05530280
557.00000000	0.06391430
558.00000000	0.07325023
559.00000000	0.09288543
560.00000000	0.10723877
561.00000000	0.11572830
562.00000000	0.12030022
563.00000000	0.12359845
564.00000000	0.12391749
565.00000000	0.12865753
566.00000000	0.14162816
567.00000000	0.18375562
568.00000000	0.28260747
569.00000000	0.56943508
570.00000000	0.60844110
571.00000000	0.36295515
572.00000000	0.25576780
573.00000000	0.20194983
574.00000000	0.17856030
575.00000000	0.17590634
576.00000000	0.18525931
577.00000000	0.19625014
578.00000000	0.21237885
579.00000000	0.23059529
580.00000000	0.25993235
581.00000000	0.28369990
582.00000000	0.31322047
583.00000000	0.34891132
584.00000000	0.38147860
585.00000000	0.40601012
586.00000000	0.39200579
587.00000000	0.29352040
588.00000000	0.14846572
589.00000000	0.06228480
590.00000000	0.02877078
591.00000000	0.01884077
592.00000000	0.03356403
593.00000000	0.10396595
594.00000000	0.20523250
595.00000000	0.29754823
596.00000000	0.36632724
597.00000000	0.39258581
598.00000000	0.40379940
599.00000000	0.41177095
600.00000000	0.39696835
601.00000000	0.38801002
602.00000000	0.37611095
603.00000000	0.36296640
604.00000000	0.34558423
605.00000000	0.32503752
606.00000000	0.31257262
607.00000000	0.29266687
608.00000000	0.27421495
609.00000000	0.26018504
610.00000000	0.24673997
611.00000000	0.23543339
612.00000000	0.22558227
613.00000000	0.21565416
614.00000000	0.21152238
615.00000000	0.21609172
616.00000000	0.29218748
617.00000000	0.30343386
618.00000000	0.22173828
619.00000000	0.19347679
620.00000000	0.17492144
621.00000000	0.16177832
622.00000000	0.15397979
623.00000000	0.15001026
624.00000000	0.14144620
625.00000000	0.13656129
626.00000000	0.13571536
627.00000000	0.12977904
628.00000000	0.12718500
629.00000000	0.12295028
630.00000000	0.11853035
631.00000000	0.11616611
632.00000000	0.11609176
633.00000000	0.10822951
634.00000000	0.11015796
635.00000000	0.10604455
636.00000000	0.10493101
637.00000000	0.09751485
638.00000000	0.09583635
639.00000000	0.09736590
640.00000000	0.09367015
641.00000000	0.09350820
642.00000000	0.09251659
643.00000000	0.08964941
644.00000000	0.08516203
645.00000000	0.08353972
646.00000000	0.08317188
647.00000000	0.08292080
648.00000000	0.08124730
649.00000000	0.07982459
650.00000000	0.07855731
651.00000000	0.07350962
652.00000000	0.06980181
653.00000000	0.07098005
654.00000000	0.07302050
655.00000000	0.06901396
656.00000000	0.06871500
657.00000000	0.06915521
658.00000000	0.07397168
659.00000000	0.06798290
660.00000000	0.06761510
661.00000000	0.06277913
662.00000000	0.06368792
663.00000000	0.06016539
664.00000000	0.05829818
665.00000000	0.05825685
666.00000000	0.06196880
667.00000000	0.06264076
668.00000000	0.06327889
669.00000000	0.06575235
670.00000000	0.06678977
671.00000000	0.06931883
672.00000000	0.06588599
673.00000000	0.06686919
674.00000000	0.06969819
675.00000000	0.06312870
676.00000000	0.06718754
677.00000000	0.06082536
678.00000000	0.05915610
679.00000000	0.05568054
680.00000000	0.04957312
681.00000000	0.04785749
682.00000000	0.04531794
683.00000000	0.04123423
684.00000000	0.04025534
685.00000000	0.04075624
686.00000000	0.03775574
687.00000000	0.03853534
688.00000000	0.03143491
689.00000000	0.03387299
690.00000000	0.02957281
691.00000000	0.02977396
692.00000000	0.03362742
693.00000000	0.02903091
694.00000000	0.03033399
695.00000000	0.02814578
696.00000000	0.03041795
697.00000000	0.02692565
698.00000000	0.02103484
699.00000000	0.02546553
700.00000000	0.02655860
701.00000000	0.02637360
702.00000000	0.02523159
703.00000000	0.02377977
704.00000000	0.02610724
705.00000000	0.02299574
706.00000000	0.02123409
707.00000000	0.02084714
708.00000000	0.01856126
709.00000000	0.02379346
710.00000000	0.02384051
711.00000000	0.02640716
712.00000000	0.02299430
713.00000000	0.02280769
714.00000000	0.02208087
715.00000000	0.01838785
716.00000000	0.01902549
717.00000000	0.02348889
718.00000000	0.02095099
719.00000000	0.01920449
720.00000000	0.02187883
721.00000000	0.02264194
722.00000000	0.01931950
723.00000000	0.02014050
724.00000000	0.01512107
725.00000000	0.02025049
726.00000000	0.01880226
727.00000000	0.01406842
728.00000000	0.02047871
729.00000000	0.01642508
730.00000000	0.02261127
731.00000000	0.01838434
732.00000000	0.01769371
733.00000000	0.01875046
734.00000000	0.01938152
735.00000000	0.01849420
736.00000000	0.01525660
737.00000000	0.01595654
738.00000000	0.01873196
739.00000000	0.01696316
740.00000000	0.01856382
741.00000000	0.01177627
742.00000000	0.01533197
743.00000000	0.02110924
744.00000000	0.01375661
745.00000000	0.01851374
746.00000000	0.01294272
747.00000000	0.01332634
748.00000000	0.01758330
749.00000000	0.01096068
750.00000000	0.01378171
751.00000000	0.01334461
752.00000000	0.01600354
753.00000000	0.01280655
754.00000000	0.01543556
755.00000000	0.01067116
756.00000000	0.01262549
757.00000000	0.01408183
758.00000000	0.01362679
759.00000000	0.00947292
760.00000000	0.01422988
761.00000000	0.00657414
762.00000000	0.01437988
763.00000000	0.01288534
764.00000000	0.01840045
765.00000000	0.01841021
766.00000000	0.01169462
767.00000000	0.03401333
768.00000000	0.01302411
769.00000000	0.01762975
770.00000000	0.02349950
771.00000000	0.02062593
772.00000000	0.01468824
773.00000000	0.01508790
774.00000000	0.01983758
775.00000000	0.01105896
776.00000000	0.01230173
777.00000000	0.01172905
778.00000000	0.00032481
779.00000000	0.01284412
780.00000000	0.00581286
781.00000000	0.01239877
782.00000000	0.00068884
783.00000000	0.01367601
784.00000000	0.01219372
785.00000000	0.00676010
786.00000000	0.01565655
787.00000000	0.01502862
788.00000000	0.01144074
789.00000000	0.01621009
790.00000000	0.01821045
791.00000000	0.01426939
792.00000000	0.01681699
793.00000000	0.01752874
794.00000000	0.02046256
795.00000000	0.01748786
796.00000000	0.01938515
797.00000000	0.02076474
798.00000000	0.01878169
799.00000000	0.01558519
800.00000000	0.01968441
801.00000000	0.01643076
802.00000000	0.01715240
803.00000000	0.02147515
804.00000000	0.02614703
805.00000000	0.02369754
806.00000000	0.02744123
807.00000000	0.01473395
808.00000000	0.02360024
809.00000000	0.02073938
810.00000000	0.03455509
811.00000000	0.01737462
812.00000000	0.03088126
813.00000000	0.02465138
814.00000000	0.04344477
815.00000000	0.04536062
816.00000000	0.09055490
817.00000000	0.19449395
818.00000000	0.50349923
819.00000000	0.88433357
820.00000000	1.00000000
821.00000000	0.83919606
822.00000000	0.53307421
823.00000000	0.32301811
824.00000000	0.20800779
825.00000000	0.13699790
826.00000000	0.08344946
827.00000000	0.05847295
828.00000000	0.05212587
829.00000000	0.03246313
830.00000000	0.03358673
831.00000000	0.03253652
832.00000000	0.03468047
833.00000000	0.02546513
834.00000000	0.02166906
835.00000000	0.02474354
836.00000000	0.01871273
837.00000000	0.01209227
838.00000000	0.01714267
839.00000000	0.01018051
840.00000000	0.00688433
841.00000000	0.00072991
842.00000000	0.00498452
843.00000000	0.00301148
844.00000000	0.00013375
845.00000000	0.00162125
846.00000000	0.00465035
847.00000000	0.01256483
848.00000000	0.00631756
849.00000000	0.00142621
850.00000000	0.00612414
851.00000000	0.01114042
852.00000000	0.00727449
853.00000000	0.00000028
854.00000000	0.00418284
855.00000000	0.00172207
856.00000000	0.00397584
857.00000000	0.00062780
858.00000000	0.00988373
859.00000000	0.00000000
860.00000000	0.00638582
861.00000000	0.00621086
862.00000000	0.00003332
863.00000000	0.00340123
864.00000000	0.00705343
865.00000000	0.00000000
866.00000000	0.00175521
867.00000000	0.00696162
868.00000000	0.00601673
869.00000000	0.01212255
870.00000000	0.00644120
871.00000000	0.00927402
872.00000000	0.01662277
873.00000000	0.00000000
874.00000000	0.00000000
875.00000000	0.00376333
876.00000000	0.00000000
877.00000000	0.00232688
878.00000000	0.00000000
879.00000000	0.00488299
880.00000000	0.00513900
881.00000000	0.01179150
882.00000000	0.01228176
883.00000000	0.00834965
884.00000000	0.00000000
885.00000000	0.00030926
886.00000000	0.00077360
887.00000000	0.00129692
888.00000000	0.00000000
889.00000000	0.02264165
890.00000000	0.00448200
891.00000000	0.00342499
892.00000000	0.00811639
893.00000000	0.00000000
894.00000000	0.00001298
895.00000000	0.00276437
896.00000000	0.00318177
897.00000000	0.00000000
898.00000000	0.00478574
899.00000000	0.01181547
900.00000000	0.00000000
