#LICA Lamps Spectra Database
#Website 1: https://guaix.fis.ucm.es/lamps_spectra
#Website 2: http://carlostapia.es/lamparas/lamps.html
#Latest update: 2017/12/15
#Tester: Carlos Eugenio Tapia Ayuga
#Correct for Electrical Dark: Yes (JAZA2310)
#Correct for Detector Non-linearity: Yes (JAZA2310)
#Correct for Flux: Yes
#Start wavelength (nm): 300
#End wavelength (nm): 900
#Steps (nm):	1
#Locus: D65 sRGB Gamma 1 CIE1931
#XYZ coordinates: 0.1610	0.1279	0.0122
#xyY coordinates: 0.5347	0.4248	0.1279
#sRGB: 81	22	0
#CCT Lindbloom (K):	2005
#CCT McCamy (K):	1995
#CCT Hernández-Andrés (K):	1709
#Melatonin: 0.105
#Chlorophyll a: 0.175
#Chlorophyll b: 0.296
#Beta Carotene: 0.177
#Manufacturer: Unknown
#Luminance manufacturer: Unknown
#Other data: Madrid streetlamp at Facultad de Físicas
#Begin Processed Spectral Data
W	S
300.00000000	0.00000000
301.00000000	0.00000000
302.00000000	0.00000000
303.00000000	0.00000000
304.00000000	0.00000000
305.00000000	0.00423504
306.00000000	0.00000000
307.00000000	0.00000000
308.00000000	0.00000000
309.00000000	0.00000000
310.00000000	0.00000000
311.00000000	0.00000000
312.00000000	0.00000000
313.00000000	0.00000000
314.00000000	0.00000000
315.00000000	0.00000000
316.00000000	0.00000000
317.00000000	0.00000000
318.00000000	0.00000000
319.00000000	0.00000000
320.00000000	0.00000000
321.00000000	0.00000000
322.00000000	0.00000000
323.00000000	0.00000000
324.00000000	0.00000000
325.00000000	0.00000000
326.00000000	0.00000000
327.00000000	0.00000000
328.00000000	0.00000000
329.00000000	0.00000000
330.00000000	0.00253029
331.00000000	0.00128381
332.00000000	0.00000000
333.00000000	0.00000000
334.00000000	0.00000000
335.00000000	0.00078913
336.00000000	0.00000000
337.00000000	0.00038666
338.00000000	0.00000000
339.00000000	0.00000000
340.00000000	0.00000000
341.00000000	0.00000000
342.00000000	0.00000000
343.00000000	0.00000000
344.00000000	0.00000000
345.00000000	0.00000000
346.00000000	0.00205832
347.00000000	0.00000000
348.00000000	0.00030056
349.00000000	0.00000000
350.00000000	0.00127199
351.00000000	0.00000000
352.00000000	0.00000000
353.00000000	0.00000000
354.00000000	0.00226441
355.00000000	0.00000000
356.00000000	0.00000000
357.00000000	0.00000000
358.00000000	0.00009235
359.00000000	0.00000000
360.00000000	0.00143183
361.00000000	0.00000000
362.00000000	0.00072309
363.00000000	0.00044525
364.00000000	0.00000000
365.00000000	0.00000000
366.00000000	0.00102099
367.00000000	0.00000000
368.00000000	0.00145787
369.00000000	0.00004292
370.00000000	0.00198139
371.00000000	0.00068057
372.00000000	0.00162768
373.00000000	0.00155102
374.00000000	0.00101568
375.00000000	0.00104092
376.00000000	0.00183736
377.00000000	0.00009261
378.00000000	0.00087018
379.00000000	0.00102298
380.00000000	0.00188838
381.00000000	0.00121605
382.00000000	0.00025405
383.00000000	0.00169784
384.00000000	0.00117658
385.00000000	0.00145150
386.00000000	0.00176999
387.00000000	0.00237615
388.00000000	0.00116024
389.00000000	0.00240605
390.00000000	0.00209167
391.00000000	0.00220568
392.00000000	0.00086912
393.00000000	0.00261280
394.00000000	0.00218575
395.00000000	0.00261918
396.00000000	0.00390166
397.00000000	0.00345986
398.00000000	0.00189170
399.00000000	0.00184626
400.00000000	0.00390352
401.00000000	0.00232566
402.00000000	0.00303972
403.00000000	0.00322002
404.00000000	0.00503692
405.00000000	0.00388877
406.00000000	0.00333841
407.00000000	0.00386565
408.00000000	0.00498922
409.00000000	0.00483934
410.00000000	0.00486724
411.00000000	0.00410854
412.00000000	0.00472414
413.00000000	0.00455313
414.00000000	0.00471470
415.00000000	0.00396278
416.00000000	0.00457864
417.00000000	0.00488890
418.00000000	0.00618228
419.00000000	0.00556681
420.00000000	0.00622613
421.00000000	0.00639899
422.00000000	0.00595520
423.00000000	0.00502190
424.00000000	0.00673516
425.00000000	0.00544298
426.00000000	0.00668759
427.00000000	0.00772266
428.00000000	0.00605871
429.00000000	0.00846476
430.00000000	0.00636896
431.00000000	0.00815968
432.00000000	0.00778086
433.00000000	0.00832059
434.00000000	0.00763696
435.00000000	0.00742304
436.00000000	0.00924644
437.00000000	0.01002786
438.00000000	0.00942649
439.00000000	0.01163176
440.00000000	0.01093857
441.00000000	0.01081792
442.00000000	0.00927129
443.00000000	0.00798708
444.00000000	0.00813576
445.00000000	0.00571350
446.00000000	0.00669928
447.00000000	0.00832790
448.00000000	0.01089964
449.00000000	0.01484169
450.00000000	0.02288883
451.00000000	0.02128480
452.00000000	0.01629584
453.00000000	0.01087134
454.00000000	0.00990230
455.00000000	0.01169368
456.00000000	0.00791187
457.00000000	0.00589155
458.00000000	0.00549360
459.00000000	0.00446344
460.00000000	0.00528539
461.00000000	0.00474420
462.00000000	0.00620314
463.00000000	0.00781169
464.00000000	0.00961875
465.00000000	0.01307436
466.00000000	0.02603737
467.00000000	0.04711874
468.00000000	0.04906718
469.00000000	0.02994328
470.00000000	0.01822236
471.00000000	0.01226849
472.00000000	0.00980278
473.00000000	0.00742410
474.00000000	0.00651858
475.00000000	0.01226490
476.00000000	0.01421586
477.00000000	0.00801153
478.00000000	0.00515092
479.00000000	0.00284134
480.00000000	0.00298351
481.00000000	0.00238745
482.00000000	0.00246411
483.00000000	0.00281662
484.00000000	0.00222096
485.00000000	0.00339927
486.00000000	0.00270063
487.00000000	0.00337934
488.00000000	0.00295574
489.00000000	0.00362861
490.00000000	0.00404689
491.00000000	0.00553001
492.00000000	0.00639859
493.00000000	0.00660295
494.00000000	0.00625483
495.00000000	0.00817310
496.00000000	0.01522410
497.00000000	0.04113378
498.00000000	0.11891145
499.00000000	0.15495795
500.00000000	0.09703245
501.00000000	0.04289128
502.00000000	0.01881537
503.00000000	0.00988091
504.00000000	0.00704661
505.00000000	0.00600795
506.00000000	0.00520646
507.00000000	0.00461319
508.00000000	0.00496849
509.00000000	0.00440551
510.00000000	0.00467312
511.00000000	0.00447726
512.00000000	0.00475310
513.00000000	0.00476174
514.00000000	0.00615251
515.00000000	0.02771927
516.00000000	0.04080067
517.00000000	0.02221822
518.00000000	0.00899066
519.00000000	0.00591786
520.00000000	0.00426055
521.00000000	0.00435688
522.00000000	0.00394405
523.00000000	0.00411877
524.00000000	0.00408183
525.00000000	0.00480067
526.00000000	0.00413684
527.00000000	0.00436126
528.00000000	0.00447341
529.00000000	0.00466408
530.00000000	0.00493859
531.00000000	0.00460628
532.00000000	0.00405327
533.00000000	0.00483548
534.00000000	0.00522400
535.00000000	0.00512807
536.00000000	0.00553891
537.00000000	0.00525948
538.00000000	0.00546317
539.00000000	0.00526865
540.00000000	0.00571377
541.00000000	0.00602934
542.00000000	0.00690005
543.00000000	0.00630053
544.00000000	0.00728605
545.00000000	0.00846143
546.00000000	0.01035048
547.00000000	0.01242674
548.00000000	0.01409362
549.00000000	0.01800153
550.00000000	0.02496815
551.00000000	0.03164564
552.00000000	0.03817139
553.00000000	0.04198429
554.00000000	0.04495638
555.00000000	0.04731486
556.00000000	0.05474733
557.00000000	0.06770822
558.00000000	0.08389962
559.00000000	0.10267633
560.00000000	0.11704114
561.00000000	0.12523390
562.00000000	0.12981148
563.00000000	0.12794769
564.00000000	0.12776167
565.00000000	0.13064326
566.00000000	0.14443713
567.00000000	0.18783770
568.00000000	0.33792150
569.00000000	0.61065776
570.00000000	0.51675724
571.00000000	0.33182758
572.00000000	0.21817057
573.00000000	0.17687163
574.00000000	0.16986979
575.00000000	0.17352072
576.00000000	0.18510492
577.00000000	0.19921037
578.00000000	0.21664891
579.00000000	0.23599603
580.00000000	0.26119113
581.00000000	0.29135338
582.00000000	0.32845077
583.00000000	0.36879462
584.00000000	0.40722883
585.00000000	0.44268060
586.00000000	0.43369272
587.00000000	0.32998584
588.00000000	0.16795630
589.00000000	0.06506805
590.00000000	0.02570904
591.00000000	0.02842747
592.00000000	0.09621807
593.00000000	0.23962743
594.00000000	0.36778306
595.00000000	0.43829249
596.00000000	0.45464281
597.00000000	0.44031587
598.00000000	0.42208992
599.00000000	0.39644825
600.00000000	0.36778492
601.00000000	0.34005609
602.00000000	0.31728219
603.00000000	0.29547189
604.00000000	0.27280841
605.00000000	0.25210028
606.00000000	0.23802406
607.00000000	0.22249117
608.00000000	0.20565746
609.00000000	0.19373391
610.00000000	0.18122519
611.00000000	0.17159647
612.00000000	0.16286012
613.00000000	0.15570602
614.00000000	0.14914120
615.00000000	0.17091829
616.00000000	0.25812165
617.00000000	0.23663688
618.00000000	0.17976851
619.00000000	0.14003547
620.00000000	0.12239536
621.00000000	0.11158155
622.00000000	0.10782193
623.00000000	0.10159076
624.00000000	0.09981120
625.00000000	0.09510992
626.00000000	0.09204894
627.00000000	0.08943348
628.00000000	0.08718236
629.00000000	0.08226769
630.00000000	0.08092302
631.00000000	0.07925202
632.00000000	0.07582086
633.00000000	0.07325138
634.00000000	0.07307732
635.00000000	0.07048578
636.00000000	0.06887922
637.00000000	0.06658584
638.00000000	0.06584615
639.00000000	0.06318312
640.00000000	0.06266904
641.00000000	0.05991845
642.00000000	0.06034577
643.00000000	0.05774041
644.00000000	0.05603167
645.00000000	0.05484180
646.00000000	0.05523550
647.00000000	0.05375212
648.00000000	0.05089842
649.00000000	0.05095330
650.00000000	0.05223392
651.00000000	0.04889923
652.00000000	0.04642023
653.00000000	0.04645398
654.00000000	0.04494189
655.00000000	0.04556028
656.00000000	0.04608300
657.00000000	0.04475202
658.00000000	0.04390589
659.00000000	0.04377833
660.00000000	0.04106960
661.00000000	0.04222240
662.00000000	0.03840472
663.00000000	0.03843142
664.00000000	0.03835329
665.00000000	0.03796823
666.00000000	0.03702670
667.00000000	0.03924340
668.00000000	0.03905938
669.00000000	0.03787575
670.00000000	0.03836007
671.00000000	0.03841123
672.00000000	0.03938611
673.00000000	0.03779018
674.00000000	0.03782911
675.00000000	0.03630680
676.00000000	0.03571259
677.00000000	0.03672136
678.00000000	0.03447781
679.00000000	0.03245377
680.00000000	0.03257003
681.00000000	0.02949856
682.00000000	0.02904812
683.00000000	0.02680856
684.00000000	0.02599738
685.00000000	0.02563530
686.00000000	0.02340610
687.00000000	0.02526126
688.00000000	0.02401213
689.00000000	0.02123404
690.00000000	0.02329143
691.00000000	0.02390889
692.00000000	0.02122700
693.00000000	0.02098969
694.00000000	0.02042976
695.00000000	0.01971598
696.00000000	0.02050989
697.00000000	0.01977205
698.00000000	0.01952504
699.00000000	0.02097640
700.00000000	0.02065538
701.00000000	0.01894930
702.00000000	0.01806491
703.00000000	0.01677764
704.00000000	0.01822874
705.00000000	0.01917545
706.00000000	0.01752385
707.00000000	0.01804551
708.00000000	0.01774136
709.00000000	0.01747655
710.00000000	0.01727711
711.00000000	0.01624429
712.00000000	0.01606133
713.00000000	0.01599064
714.00000000	0.01463787
715.00000000	0.01479864
716.00000000	0.01657873
717.00000000	0.01539603
718.00000000	0.01572503
719.00000000	0.01463813
720.00000000	0.01478748
721.00000000	0.01550140
722.00000000	0.01535059
723.00000000	0.01371719
724.00000000	0.01308233
725.00000000	0.01380927
726.00000000	0.01473699
727.00000000	0.01521373
728.00000000	0.01330569
729.00000000	0.01242302
730.00000000	0.01388355
731.00000000	0.01367281
732.00000000	0.01482880
733.00000000	0.01323620
734.00000000	0.01325533
735.00000000	0.01217561
736.00000000	0.01220949
737.00000000	0.01130875
738.00000000	0.01289139
739.00000000	0.01309655
740.00000000	0.01143538
741.00000000	0.01261063
742.00000000	0.01233439
743.00000000	0.01342275
744.00000000	0.00953690
745.00000000	0.01240721
746.00000000	0.01049398
747.00000000	0.00860281
748.00000000	0.00793141
749.00000000	0.00997379
750.00000000	0.01046315
751.00000000	0.00878657
752.00000000	0.01016831
753.00000000	0.01316710
754.00000000	0.01007583
755.00000000	0.00964161
756.00000000	0.01163349
757.00000000	0.01065954
758.00000000	0.00936271
759.00000000	0.01095505
760.00000000	0.00797220
761.00000000	0.00621855
762.00000000	0.00750582
763.00000000	0.00945200
764.00000000	0.00985460
765.00000000	0.00889566
766.00000000	0.01681577
767.00000000	0.02532504
768.00000000	0.01933251
769.00000000	0.01371693
770.00000000	0.02162721
771.00000000	0.01470975
772.00000000	0.01253357
773.00000000	0.01008899
774.00000000	0.00772811
775.00000000	0.00734717
776.00000000	0.00735873
777.00000000	0.00485183
778.00000000	0.00507559
779.00000000	0.00698137
780.00000000	0.00802163
781.00000000	0.00799505
782.00000000	0.00685049
783.00000000	0.00991665
784.00000000	0.01187851
785.00000000	0.00989818
786.00000000	0.01007636
787.00000000	0.00906813
788.00000000	0.00949638
789.00000000	0.01058646
790.00000000	0.00975906
791.00000000	0.01354034
792.00000000	0.00966087
793.00000000	0.01242328
794.00000000	0.01522264
795.00000000	0.00779787
796.00000000	0.01203304
797.00000000	0.00931580
798.00000000	0.01104513
799.00000000	0.01117083
800.00000000	0.01189778
801.00000000	0.01241345
802.00000000	0.00991479
803.00000000	0.01744280
804.00000000	0.01694400
805.00000000	0.01550672
806.00000000	0.01288329
807.00000000	0.01422490
808.00000000	0.01650605
809.00000000	0.01713985
810.00000000	0.01900165
811.00000000	0.01659707
812.00000000	0.01964980
813.00000000	0.02297533
814.00000000	0.02968511
815.00000000	0.03703640
816.00000000	0.06456898
817.00000000	0.15488646
818.00000000	0.47513769
819.00000000	0.85835292
820.00000000	1.00000000
821.00000000	0.78057446
822.00000000	0.47128785
823.00000000	0.25138715
824.00000000	0.15205535
825.00000000	0.09068634
826.00000000	0.06231081
827.00000000	0.04385168
828.00000000	0.02598502
829.00000000	0.01851933
830.00000000	0.01846299
831.00000000	0.01192143
832.00000000	0.01177726
833.00000000	0.01204234
834.00000000	0.01045545
835.00000000	0.00394325
836.00000000	0.00696689
837.00000000	0.00000000
838.00000000	0.00630107
839.00000000	0.00589913
840.00000000	0.00410243
841.00000000	0.00383801
842.00000000	0.00016715
843.00000000	0.00425390
844.00000000	0.00117007
845.00000000	0.00123186
846.00000000	0.00589806
847.00000000	0.00177849
848.00000000	0.00642743
849.00000000	0.00206829
850.00000000	0.00277198
851.00000000	0.00348829
852.00000000	0.00000000
853.00000000	0.00024900
854.00000000	0.00053787
855.00000000	0.00000000
856.00000000	0.00000000
857.00000000	0.00305659
858.00000000	0.00000000
859.00000000	0.00000000
860.00000000	0.00000000
861.00000000	0.00784969
862.00000000	0.00234573
863.00000000	0.00000000
864.00000000	0.00000000
865.00000000	0.00000000
866.00000000	0.00000000
867.00000000	0.00000000
868.00000000	0.00000000
869.00000000	0.00809404
870.00000000	0.00161480
871.00000000	0.00000000
872.00000000	0.00102033
873.00000000	0.00108756
874.00000000	0.00002857
875.00000000	0.00000000
876.00000000	0.00363871
877.00000000	0.00000000
878.00000000	0.00000000
879.00000000	0.00000000
880.00000000	0.00000000
881.00000000	0.00000000
882.00000000	0.00118960
883.00000000	0.00000000
884.00000000	0.00367046
885.00000000	0.00000000
886.00000000	0.00225019
887.00000000	0.00000000
888.00000000	0.00000000
889.00000000	0.00000000
890.00000000	0.00023758
891.00000000	0.00000000
892.00000000	0.00000000
893.00000000	0.00000000
894.00000000	0.00000000
895.00000000	0.00000000
896.00000000	0.00000000
897.00000000	0.00000000
898.00000000	0.00000000
899.00000000	0.00000000
900.00000000	0.00000000
