#LICA Lamps Spectra Database
#Website 1: https://guaix.fis.ucm.es/lamps_spectra
#Website 2: http://carlostapia.es/lamparas/lamps.html
#Latest update: 2017/12/26
#Tester: Carlos Eugenio Tapia Ayuga
#Correct for Electrical Dark: Yes (JAZA2310)
#Correct for Detector Non-linearity: Yes (JAZA2310)
#Correct for Flux: Yes
#Start wavelength (nm): 300
#End wavelength (nm): 900
#Steps (nm):	1
#Locus: D65 sRGB Gamma 1 CIE1931
#XYZ coordinates: 0.1707	0.1300	0.0126
#xyY coordinates: 0.5449	0.4150	0.1300
#sRGB: 89	20	0
#CCT Lindbloom (K):	1869
#CCT McCamy (K):	1864
#CCT Hernández-Andrés (K):	1503
#Melatonin: 0.101
#Chlorophyll a: 0.184
#Chlorophyll b: 0.310
#Beta Carotene: 0.185
#Manufacturer: Unknown
#Luminance manufacturer: Unknown
#Other data: Riba-Roja de Turia streetlamps. Near river Turia.
#Begin Processed Spectral Data
W	S
300.00000000	0.00000000
301.00000000	0.00000000
302.00000000	0.00030300
303.00000000	0.00000000
304.00000000	0.00041568
305.00000000	0.00311529
306.00000000	0.00000000
307.00000000	0.00000000
308.00000000	0.00000000
309.00000000	0.00000000
310.00000000	0.00010947
311.00000000	0.00013758
312.00000000	0.00000000
313.00000000	0.00000000
314.00000000	0.00000000
315.00000000	0.00000000
316.00000000	0.00000000
317.00000000	0.00000000
318.00000000	0.00002532
319.00000000	0.00299535
320.00000000	0.00000000
321.00000000	0.00000000
322.00000000	0.00000000
323.00000000	0.00000000
324.00000000	0.00000000
325.00000000	0.00004900
326.00000000	0.00000000
327.00000000	0.00000000
328.00000000	0.00000000
329.00000000	0.00000000
330.00000000	0.00016990
331.00000000	0.00000000
332.00000000	0.00000000
333.00000000	0.00005485
334.00000000	0.00081069
335.00000000	0.00002416
336.00000000	0.00000000
337.00000000	0.00000000
338.00000000	0.00000000
339.00000000	0.00000000
340.00000000	0.00000000
341.00000000	0.00000000
342.00000000	0.00000000
343.00000000	0.00000000
344.00000000	0.00000000
345.00000000	0.00000681
346.00000000	0.00000000
347.00000000	0.00000000
348.00000000	0.00000000
349.00000000	0.00000000
350.00000000	0.00000000
351.00000000	0.00007656
352.00000000	0.00000000
353.00000000	0.00000000
354.00000000	0.00000103
355.00000000	0.00000000
356.00000000	0.00000000
357.00000000	0.00000000
358.00000000	0.00000000
359.00000000	0.00010056
360.00000000	0.00028954
361.00000000	0.00000000
362.00000000	0.00000000
363.00000000	0.00000000
364.00000000	0.00007464
365.00000000	0.00000000
366.00000000	0.00000000
367.00000000	0.00000000
368.00000000	0.00000000
369.00000000	0.00000000
370.00000000	0.00034340
371.00000000	0.00000000
372.00000000	0.00000000
373.00000000	0.00002698
374.00000000	0.00000000
375.00000000	0.00000000
376.00000000	0.00000000
377.00000000	0.00000000
378.00000000	0.00001958
379.00000000	0.00000000
380.00000000	0.00201015
381.00000000	0.00000000
382.00000000	0.00000000
383.00000000	0.00000000
384.00000000	0.00000000
385.00000000	0.00000000
386.00000000	0.00000000
387.00000000	0.00000000
388.00000000	0.00000000
389.00000000	0.00005292
390.00000000	0.00023799
391.00000000	0.00012947
392.00000000	0.00025283
393.00000000	0.00083440
394.00000000	0.00096457
395.00000000	0.00033632
396.00000000	0.00065935
397.00000000	0.00075629
398.00000000	0.00071687
399.00000000	0.00053420
400.00000000	0.00162022
401.00000000	0.00112413
402.00000000	0.00289506
403.00000000	0.00241148
404.00000000	0.00307864
405.00000000	0.00351977
406.00000000	0.00388016
407.00000000	0.00389205
408.00000000	0.00376235
409.00000000	0.00378152
410.00000000	0.00426407
411.00000000	0.00427254
412.00000000	0.00340846
413.00000000	0.00335613
414.00000000	0.00449926
415.00000000	0.00447281
416.00000000	0.00522639
417.00000000	0.00448168
418.00000000	0.00456185
419.00000000	0.00517818
420.00000000	0.00497876
421.00000000	0.00520454
422.00000000	0.00626454
423.00000000	0.00584032
424.00000000	0.00622299
425.00000000	0.00646502
426.00000000	0.00625442
427.00000000	0.00696786
428.00000000	0.00636742
429.00000000	0.00712192
430.00000000	0.00675914
431.00000000	0.00736591
432.00000000	0.00786783
433.00000000	0.00824962
434.00000000	0.00851242
435.00000000	0.00816121
436.00000000	0.00988274
437.00000000	0.01076772
438.00000000	0.01030654
439.00000000	0.01059723
440.00000000	0.01093435
441.00000000	0.01172206
442.00000000	0.01000992
443.00000000	0.00995516
444.00000000	0.00779022
445.00000000	0.00759195
446.00000000	0.00712953
447.00000000	0.00919045
448.00000000	0.01100542
449.00000000	0.01284686
450.00000000	0.01639976
451.00000000	0.02086079
452.00000000	0.01871419
453.00000000	0.01657994
454.00000000	0.01290702
455.00000000	0.01308537
456.00000000	0.01196173
457.00000000	0.00863752
458.00000000	0.00768685
459.00000000	0.00670830
460.00000000	0.00666069
461.00000000	0.00635111
462.00000000	0.00706417
463.00000000	0.00859732
464.00000000	0.01048272
465.00000000	0.01253052
466.00000000	0.01830451
467.00000000	0.03383797
468.00000000	0.04346260
469.00000000	0.03644757
470.00000000	0.02806637
471.00000000	0.02071912
472.00000000	0.01477396
473.00000000	0.01174492
474.00000000	0.00951317
475.00000000	0.01009832
476.00000000	0.01416741
477.00000000	0.00996078
478.00000000	0.00682981
479.00000000	0.00484493
480.00000000	0.00274985
481.00000000	0.00231386
482.00000000	0.00208476
483.00000000	0.00250439
484.00000000	0.00259352
485.00000000	0.00242799
486.00000000	0.00328357
487.00000000	0.00299149
488.00000000	0.00291222
489.00000000	0.00293765
490.00000000	0.00385036
491.00000000	0.00483790
492.00000000	0.00667902
493.00000000	0.00669401
494.00000000	0.00651542
495.00000000	0.00782079
496.00000000	0.01145654
497.00000000	0.02509274
498.00000000	0.07134280
499.00000000	0.12617669
500.00000000	0.10537563
501.00000000	0.07265224
502.00000000	0.04294757
503.00000000	0.02113010
504.00000000	0.01132879
505.00000000	0.00761355
506.00000000	0.00586857
507.00000000	0.00469251
508.00000000	0.00434423
509.00000000	0.00404767
510.00000000	0.00410075
511.00000000	0.00352942
512.00000000	0.00379891
513.00000000	0.00389633
514.00000000	0.00465191
515.00000000	0.01437048
516.00000000	0.03322996
517.00000000	0.02326403
518.00000000	0.01634590
519.00000000	0.01008221
520.00000000	0.00572672
521.00000000	0.00405576
522.00000000	0.00378386
523.00000000	0.00385202
524.00000000	0.00380466
525.00000000	0.00387307
526.00000000	0.00378997
527.00000000	0.00383476
528.00000000	0.00436729
529.00000000	0.00401870
530.00000000	0.00374789
531.00000000	0.00426926
532.00000000	0.00412175
533.00000000	0.00424697
534.00000000	0.00433331
535.00000000	0.00478688
536.00000000	0.00435385
537.00000000	0.00450367
538.00000000	0.00443927
539.00000000	0.00507711
540.00000000	0.00483740
541.00000000	0.00542429
542.00000000	0.00513859
543.00000000	0.00574961
544.00000000	0.00610691
545.00000000	0.00661079
546.00000000	0.00947168
547.00000000	0.01190845
548.00000000	0.01217057
549.00000000	0.01347009
550.00000000	0.01833790
551.00000000	0.02321023
552.00000000	0.02803657
553.00000000	0.03206967
554.00000000	0.03461149
555.00000000	0.03705550
556.00000000	0.04180238
557.00000000	0.04970542
558.00000000	0.06084512
559.00000000	0.07402124
560.00000000	0.08674390
561.00000000	0.09737929
562.00000000	0.10351085
563.00000000	0.10549814
564.00000000	0.10591569
565.00000000	0.10973731
566.00000000	0.12070302
567.00000000	0.15604773
568.00000000	0.25474715
569.00000000	0.49617446
570.00000000	0.52158235
571.00000000	0.38265663
572.00000000	0.31094828
573.00000000	0.22493497
574.00000000	0.17044541
575.00000000	0.15392148
576.00000000	0.15580111
577.00000000	0.16561065
578.00000000	0.17790045
579.00000000	0.19369495
580.00000000	0.21664967
581.00000000	0.24292417
582.00000000	0.27788330
583.00000000	0.31910553
584.00000000	0.36468033
585.00000000	0.42190764
586.00000000	0.46698192
587.00000000	0.44616992
588.00000000	0.32066388
589.00000000	0.18955830
590.00000000	0.11292140
591.00000000	0.06764434
592.00000000	0.10428123
593.00000000	0.22958998
594.00000000	0.34917898
595.00000000	0.43730522
596.00000000	0.47900052
597.00000000	0.48550409
598.00000000	0.47246881
599.00000000	0.45189909
600.00000000	0.42420246
601.00000000	0.39505830
602.00000000	0.36838742
603.00000000	0.34222589
604.00000000	0.31798262
605.00000000	0.29435413
606.00000000	0.27619988
607.00000000	0.25388946
608.00000000	0.23847407
609.00000000	0.22195810
610.00000000	0.20770323
611.00000000	0.19853878
612.00000000	0.18459287
613.00000000	0.17361443
614.00000000	0.16847831
615.00000000	0.17738019
616.00000000	0.24235295
617.00000000	0.25291358
618.00000000	0.19951295
619.00000000	0.18182258
620.00000000	0.15697460
621.00000000	0.13186444
622.00000000	0.12099594
623.00000000	0.11609637
624.00000000	0.11081872
625.00000000	0.10754383
626.00000000	0.10342252
627.00000000	0.10060789
628.00000000	0.09708361
629.00000000	0.09405131
630.00000000	0.08987710
631.00000000	0.08730609
632.00000000	0.08504099
633.00000000	0.08240208
634.00000000	0.08011753
635.00000000	0.07886397
636.00000000	0.07548395
637.00000000	0.07454345
638.00000000	0.07185797
639.00000000	0.07107856
640.00000000	0.06806284
641.00000000	0.06673493
642.00000000	0.06544637
643.00000000	0.06458691
644.00000000	0.06231854
645.00000000	0.06060744
646.00000000	0.06107928
647.00000000	0.05920334
648.00000000	0.05896376
649.00000000	0.05735003
650.00000000	0.05543459
651.00000000	0.05449131
652.00000000	0.05313374
653.00000000	0.05161933
654.00000000	0.05162503
655.00000000	0.05130281
656.00000000	0.05123616
657.00000000	0.05056661
658.00000000	0.05016469
659.00000000	0.04927196
660.00000000	0.04916569
661.00000000	0.04690188
662.00000000	0.04525855
663.00000000	0.04410987
664.00000000	0.04246711
665.00000000	0.04279586
666.00000000	0.04274781
667.00000000	0.04427471
668.00000000	0.04389566
669.00000000	0.04498155
670.00000000	0.04672446
671.00000000	0.04652806
672.00000000	0.04757920
673.00000000	0.04681297
674.00000000	0.04683787
675.00000000	0.04498947
676.00000000	0.04445700
677.00000000	0.04379126
678.00000000	0.04210791
679.00000000	0.03954947
680.00000000	0.03956639
681.00000000	0.03583612
682.00000000	0.03433408
683.00000000	0.03165881
684.00000000	0.03072770
685.00000000	0.02819785
686.00000000	0.02700683
687.00000000	0.02634796
688.00000000	0.02485240
689.00000000	0.02487059
690.00000000	0.02305223
691.00000000	0.02234582
692.00000000	0.02224993
693.00000000	0.02215353
694.00000000	0.02042612
695.00000000	0.02128810
696.00000000	0.01971400
697.00000000	0.02076571
698.00000000	0.01938213
699.00000000	0.02070585
700.00000000	0.01959744
701.00000000	0.01918386
702.00000000	0.01943318
703.00000000	0.02111062
704.00000000	0.01880434
705.00000000	0.01796389
706.00000000	0.01878664
707.00000000	0.01860158
708.00000000	0.01823129
709.00000000	0.01800214
710.00000000	0.01841399
711.00000000	0.01694217
712.00000000	0.01569352
713.00000000	0.01604841
714.00000000	0.01628115
715.00000000	0.01650490
716.00000000	0.01642548
717.00000000	0.01516134
718.00000000	0.01572120
719.00000000	0.01639989
720.00000000	0.01602125
721.00000000	0.01558436
722.00000000	0.01616775
723.00000000	0.01545044
724.00000000	0.01446675
725.00000000	0.01511629
726.00000000	0.01306427
727.00000000	0.01442116
728.00000000	0.01512677
729.00000000	0.01632066
730.00000000	0.01423447
731.00000000	0.01471742
732.00000000	0.01327801
733.00000000	0.01269809
734.00000000	0.01405864
735.00000000	0.01291365
736.00000000	0.01270485
737.00000000	0.01194933
738.00000000	0.01375750
739.00000000	0.01208321
740.00000000	0.01355780
741.00000000	0.01519052
742.00000000	0.01165116
743.00000000	0.01259600
744.00000000	0.01145777
745.00000000	0.01243624
746.00000000	0.01153073
747.00000000	0.01202586
748.00000000	0.01138305
749.00000000	0.01195459
750.00000000	0.01097977
751.00000000	0.01221477
752.00000000	0.01152980
753.00000000	0.01156702
754.00000000	0.01119511
755.00000000	0.01281997
756.00000000	0.01043769
757.00000000	0.01131805
758.00000000	0.00960761
759.00000000	0.01098996
760.00000000	0.01086021
761.00000000	0.00894177
762.00000000	0.00988796
763.00000000	0.00941883
764.00000000	0.01110208
765.00000000	0.01158494
766.00000000	0.01653395
767.00000000	0.02888315
768.00000000	0.02088568
769.00000000	0.01910069
770.00000000	0.02433900
771.00000000	0.02099970
772.00000000	0.01535633
773.00000000	0.01265816
774.00000000	0.01191843
775.00000000	0.01050682
776.00000000	0.00915734
777.00000000	0.00836112
778.00000000	0.00871352
779.00000000	0.00964438
780.00000000	0.00639910
781.00000000	0.00941495
782.00000000	0.00932572
783.00000000	0.00955196
784.00000000	0.00928359
785.00000000	0.01003349
786.00000000	0.01195908
787.00000000	0.00909549
788.00000000	0.00952031
789.00000000	0.00894522
790.00000000	0.00910109
791.00000000	0.01029896
792.00000000	0.01270685
793.00000000	0.01009300
794.00000000	0.01330610
795.00000000	0.00997733
796.00000000	0.01067643
797.00000000	0.01133705
798.00000000	0.01353875
799.00000000	0.01256061
800.00000000	0.01492346
801.00000000	0.01499327
802.00000000	0.01454298
803.00000000	0.01799234
804.00000000	0.01659824
805.00000000	0.01722471
806.00000000	0.01506434
807.00000000	0.01701031
808.00000000	0.01784854
809.00000000	0.02369068
810.00000000	0.01922940
811.00000000	0.02222849
812.00000000	0.02392831
813.00000000	0.02533788
814.00000000	0.02787970
815.00000000	0.04276652
816.00000000	0.07123689
817.00000000	0.16239426
818.00000000	0.45442907
819.00000000	0.85359661
820.00000000	1.00000000
821.00000000	0.88939697
822.00000000	0.65886730
823.00000000	0.45361364
824.00000000	0.27231049
825.00000000	0.15821369
826.00000000	0.09620665
827.00000000	0.06237013
828.00000000	0.04574647
829.00000000	0.03507363
830.00000000	0.03017500
831.00000000	0.02494078
832.00000000	0.02407337
833.00000000	0.01672873
834.00000000	0.01473914
835.00000000	0.01628922
836.00000000	0.01125792
837.00000000	0.00880480
838.00000000	0.00977214
839.00000000	0.00978912
840.00000000	0.01025729
841.00000000	0.00793229
842.00000000	0.00327532
843.00000000	0.00825866
844.00000000	0.00547336
845.00000000	0.00310865
846.00000000	0.00194842
847.00000000	0.00399131
848.00000000	0.00432309
849.00000000	0.00684766
850.00000000	0.00424819
851.00000000	0.00021580
852.00000000	0.00386190
853.00000000	0.00005087
854.00000000	0.00467297
855.00000000	0.00558553
856.00000000	0.00295722
857.00000000	0.00489889
858.00000000	0.00412190
859.00000000	0.00632324
860.00000000	0.00268823
861.00000000	0.00031803
862.00000000	0.00147976
863.00000000	0.00223301
864.00000000	0.00083277
865.00000000	0.00430884
866.00000000	0.00394379
867.00000000	0.00225373
868.00000000	0.00522461
869.00000000	0.00136144
870.00000000	0.00332404
871.00000000	0.00381719
872.00000000	0.00815867
873.00000000	0.00525112
874.00000000	0.00542550
875.00000000	0.00222143
876.00000000	0.00000000
877.00000000	0.00001106
878.00000000	0.00383057
879.00000000	0.00386375
880.00000000	0.00246792
881.00000000	0.00054888
882.00000000	0.00024148
883.00000000	0.00000000
884.00000000	0.00000000
885.00000000	0.00000000
886.00000000	0.00000000
887.00000000	0.00000000
888.00000000	0.00284155
889.00000000	0.00471760
890.00000000	0.00015900
891.00000000	0.00114390
892.00000000	0.00000000
893.00000000	0.00000000
894.00000000	0.00008438
895.00000000	0.00478308
896.00000000	0.00275040
897.00000000	0.00400025
898.00000000	0.00301868
899.00000000	0.00061175
900.00000000	0.00040631
