#LICA Lamps Spectra Database
#Website 1: https://guaix.fis.ucm.es/lamps_spectra
#Website 2: http://carlostapia.es/lamparas/lamps.html
#Latest update: 2017/12/26
#Tester: Carlos Eugenio Tapia Ayuga
#Correct for Electrical Dark: Yes (JAZA2310)
#Correct for Detector Non-linearity: Yes (JAZA2310)
#Correct for Flux: Yes
#Start wavelength (nm): 300
#End wavelength (nm): 900
#Steps (nm):	1
#Locus: D65 sRGB Gamma 1 CIE1931
#XYZ coordinates: 0.1832	0.1533	0.0126
#xyY coordinates: 0.5248	0.4392	0.1533
#sRGB: 90	28	0
#CCT Lindbloom (K):	2176
#CCT McCamy (K):	2172
#CCT Hernández-Andrés (K):	1951
#Melatonin: 0.104
#Chlorophyll a: 0.369
#Chlorophyll b: 0.289
#Beta Carotene: 0.369
#Manufacturer: Unknown
#Luminance manufacturer: Unknown
#Other data: Riba-Roja de Turia streetlamps. Yellowish.
#Begin Processed Spectral Data
W	S
300.00000000	0.00000000
301.00000000	0.00000000
302.00000000	0.00000000
303.00000000	0.00000000
304.00000000	0.00000000
305.00000000	0.00000000
306.00000000	0.00000000
307.00000000	0.00000000
308.00000000	0.00000000
309.00000000	0.00000000
310.00000000	0.00046807
311.00000000	0.00008429
312.00000000	0.00000000
313.00000000	0.00000000
314.00000000	0.00000000
315.00000000	0.00000000
316.00000000	0.00000000
317.00000000	0.00000000
318.00000000	0.00000804
319.00000000	0.00090293
320.00000000	0.00065638
321.00000000	0.00000000
322.00000000	0.00000000
323.00000000	0.00000000
324.00000000	0.00000000
325.00000000	0.00000000
326.00000000	0.00000000
327.00000000	0.00000000
328.00000000	0.00042134
329.00000000	0.00000000
330.00000000	0.00000000
331.00000000	0.00000000
332.00000000	0.00135913
333.00000000	0.00000000
334.00000000	0.00000000
335.00000000	0.00000000
336.00000000	0.00000000
337.00000000	0.00000000
338.00000000	0.00004063
339.00000000	0.00000000
340.00000000	0.00001133
341.00000000	0.00038424
342.00000000	0.00000000
343.00000000	0.00000000
344.00000000	0.00022679
345.00000000	0.00000005
346.00000000	0.00000000
347.00000000	0.00000000
348.00000000	0.00000000
349.00000000	0.00001168
350.00000000	0.00000000
351.00000000	0.00000000
352.00000000	0.00000000
353.00000000	0.00000000
354.00000000	0.00000513
355.00000000	0.00086877
356.00000000	0.00000000
357.00000000	0.00000000
358.00000000	0.00032435
359.00000000	0.00068931
360.00000000	0.00019812
361.00000000	0.00024211
362.00000000	0.00000000
363.00000000	0.00000328
364.00000000	0.00039210
365.00000000	0.00010412
366.00000000	0.00000000
367.00000000	0.00046304
368.00000000	0.00109079
369.00000000	0.00112935
370.00000000	0.00022953
371.00000000	0.00094513
372.00000000	0.00049054
373.00000000	0.00012755
374.00000000	0.00014986
375.00000000	0.00115681
376.00000000	0.00000278
377.00000000	0.00016901
378.00000000	0.00054002
379.00000000	0.00151369
380.00000000	0.00108972
381.00000000	0.00061807
382.00000000	0.00063107
383.00000000	0.00119492
384.00000000	0.00128772
385.00000000	0.00062820
386.00000000	0.00092831
387.00000000	0.00048515
388.00000000	0.00176851
389.00000000	0.00124305
390.00000000	0.00162355
391.00000000	0.00130302
392.00000000	0.00189023
393.00000000	0.00195848
394.00000000	0.00131626
395.00000000	0.00213001
396.00000000	0.00104287
397.00000000	0.00270196
398.00000000	0.00248498
399.00000000	0.00210141
400.00000000	0.00228568
401.00000000	0.00170202
402.00000000	0.00253416
403.00000000	0.00323381
404.00000000	0.00355526
405.00000000	0.00316108
406.00000000	0.00356258
407.00000000	0.00316391
408.00000000	0.00397002
409.00000000	0.00443393
410.00000000	0.00350675
411.00000000	0.00302531
412.00000000	0.00388405
413.00000000	0.00429376
414.00000000	0.00396465
415.00000000	0.00432820
416.00000000	0.00370368
417.00000000	0.00462614
418.00000000	0.00506627
419.00000000	0.00495586
420.00000000	0.00495740
421.00000000	0.00492174
422.00000000	0.00597073
423.00000000	0.00573545
424.00000000	0.00537196
425.00000000	0.00575595
426.00000000	0.00576874
427.00000000	0.00627653
428.00000000	0.00658351
429.00000000	0.00681938
430.00000000	0.00627483
431.00000000	0.00710399
432.00000000	0.00817967
433.00000000	0.00834599
434.00000000	0.00892096
435.00000000	0.00880230
436.00000000	0.00886584
437.00000000	0.00980711
438.00000000	0.00943762
439.00000000	0.01098201
440.00000000	0.01126827
441.00000000	0.00952268
442.00000000	0.00775075
443.00000000	0.00736092
444.00000000	0.00516730
445.00000000	0.00443907
446.00000000	0.00486588
447.00000000	0.00673634
448.00000000	0.00888667
449.00000000	0.01220444
450.00000000	0.01982642
451.00000000	0.01831214
452.00000000	0.01432963
453.00000000	0.01061422
454.00000000	0.00937316
455.00000000	0.00949858
456.00000000	0.00662940
457.00000000	0.00512227
458.00000000	0.00490976
459.00000000	0.00466044
460.00000000	0.00498717
461.00000000	0.00601226
462.00000000	0.00681751
463.00000000	0.00825454
464.00000000	0.01001378
465.00000000	0.01233051
466.00000000	0.02430090
467.00000000	0.04640760
468.00000000	0.04288815
469.00000000	0.02735083
470.00000000	0.01785718
471.00000000	0.01247401
472.00000000	0.00892541
473.00000000	0.00797876
474.00000000	0.00859954
475.00000000	0.01514294
476.00000000	0.01726303
477.00000000	0.01096339
478.00000000	0.00918892
479.00000000	0.00823538
480.00000000	0.00777311
481.00000000	0.00782728
482.00000000	0.00771260
483.00000000	0.00842671
484.00000000	0.00830692
485.00000000	0.00888896
486.00000000	0.00898702
487.00000000	0.00917831
488.00000000	0.00914555
489.00000000	0.01016228
490.00000000	0.01030075
491.00000000	0.01186158
492.00000000	0.01298584
493.00000000	0.01222370
494.00000000	0.01275907
495.00000000	0.01430202
496.00000000	0.02052816
497.00000000	0.04407464
498.00000000	0.11823213
499.00000000	0.14214184
500.00000000	0.08140228
501.00000000	0.05267979
502.00000000	0.03305028
503.00000000	0.02076958
504.00000000	0.01541997
505.00000000	0.01420169
506.00000000	0.01338018
507.00000000	0.01266532
508.00000000	0.01291515
509.00000000	0.01314751
510.00000000	0.01309644
511.00000000	0.01287877
512.00000000	0.01300061
513.00000000	0.01363404
514.00000000	0.01603363
515.00000000	0.03726085
516.00000000	0.04679287
517.00000000	0.02479455
518.00000000	0.02102624
519.00000000	0.01749871
520.00000000	0.01539406
521.00000000	0.01423296
522.00000000	0.01409593
523.00000000	0.01454642
524.00000000	0.01495779
525.00000000	0.01513706
526.00000000	0.01512075
527.00000000	0.01490849
528.00000000	0.01525991
529.00000000	0.01556187
530.00000000	0.01551979
531.00000000	0.01613516
532.00000000	0.01632342
533.00000000	0.01642876
534.00000000	0.01681316
535.00000000	0.01706083
536.00000000	0.01730465
537.00000000	0.01815882
538.00000000	0.01810644
539.00000000	0.01862844
540.00000000	0.01971038
541.00000000	0.02020715
542.00000000	0.02137046
543.00000000	0.02195891
544.00000000	0.02347750
545.00000000	0.02620329
546.00000000	0.02941296
547.00000000	0.03498052
548.00000000	0.04549132
549.00000000	0.06219073
550.00000000	0.08332568
551.00000000	0.10336714
552.00000000	0.11443525
553.00000000	0.12133946
554.00000000	0.12268654
555.00000000	0.12431471
556.00000000	0.13111294
557.00000000	0.13886688
558.00000000	0.15231044
559.00000000	0.16440808
560.00000000	0.17656539
561.00000000	0.18642960
562.00000000	0.19105372
563.00000000	0.19401901
564.00000000	0.19984625
565.00000000	0.20689292
566.00000000	0.22623374
567.00000000	0.27366567
568.00000000	0.40842063
569.00000000	0.58017111
570.00000000	0.45604569
571.00000000	0.36405610
572.00000000	0.33929803
573.00000000	0.31070067
574.00000000	0.30255307
575.00000000	0.31231006
576.00000000	0.32809841
577.00000000	0.34588896
578.00000000	0.36332512
579.00000000	0.37874908
580.00000000	0.39281860
581.00000000	0.39587648
582.00000000	0.38524777
583.00000000	0.34953874
584.00000000	0.28208644
585.00000000	0.19714839
586.00000000	0.11570976
587.00000000	0.06123320
588.00000000	0.03290846
589.00000000	0.01673694
590.00000000	0.01059258
591.00000000	0.01073895
592.00000000	0.01826701
593.00000000	0.05326248
594.00000000	0.12634916
595.00000000	0.21672688
596.00000000	0.29751835
597.00000000	0.36028298
598.00000000	0.39770796
599.00000000	0.42000743
600.00000000	0.42605501
601.00000000	0.41906895
602.00000000	0.40717322
603.00000000	0.39481326
604.00000000	0.37436339
605.00000000	0.35211329
606.00000000	0.33544074
607.00000000	0.31563237
608.00000000	0.29793692
609.00000000	0.28272423
610.00000000	0.26750540
611.00000000	0.25518236
612.00000000	0.24213773
613.00000000	0.22914556
614.00000000	0.22218464
615.00000000	0.25566561
616.00000000	0.32681688
617.00000000	0.26494803
618.00000000	0.21810155
619.00000000	0.20318678
620.00000000	0.18378285
621.00000000	0.16704770
622.00000000	0.15837102
623.00000000	0.15108815
624.00000000	0.14601553
625.00000000	0.14108231
626.00000000	0.13628595
627.00000000	0.13274587
628.00000000	0.12876884
629.00000000	0.12375931
630.00000000	0.11996370
631.00000000	0.11642878
632.00000000	0.11302133
633.00000000	0.10964109
634.00000000	0.10726140
635.00000000	0.10393745
636.00000000	0.10232227
637.00000000	0.09833416
638.00000000	0.09611637
639.00000000	0.09350033
640.00000000	0.09283462
641.00000000	0.08973491
642.00000000	0.08777889
643.00000000	0.08599950
644.00000000	0.08450798
645.00000000	0.08178885
646.00000000	0.08119681
647.00000000	0.07870124
648.00000000	0.07627345
649.00000000	0.07574394
650.00000000	0.07498716
651.00000000	0.07391655
652.00000000	0.07175909
653.00000000	0.06981834
654.00000000	0.06905677
655.00000000	0.06681188
656.00000000	0.06584881
657.00000000	0.06610435
658.00000000	0.06455440
659.00000000	0.06382071
660.00000000	0.06269298
661.00000000	0.06218213
662.00000000	0.06145054
663.00000000	0.06026547
664.00000000	0.05900784
665.00000000	0.05839369
666.00000000	0.05793135
667.00000000	0.05638830
668.00000000	0.05537441
669.00000000	0.05643087
670.00000000	0.05451985
671.00000000	0.05492737
672.00000000	0.05396308
673.00000000	0.05367573
674.00000000	0.05252584
675.00000000	0.05273644
676.00000000	0.05262089
677.00000000	0.05044257
678.00000000	0.05008218
679.00000000	0.04911748
680.00000000	0.05046856
681.00000000	0.04912081
682.00000000	0.04895748
683.00000000	0.04804371
684.00000000	0.04695296
685.00000000	0.04680691
686.00000000	0.04606910
687.00000000	0.04477807
688.00000000	0.04412085
689.00000000	0.04476602
690.00000000	0.04412844
691.00000000	0.04479146
692.00000000	0.04506219
693.00000000	0.04431891
694.00000000	0.04363068
695.00000000	0.04338055
696.00000000	0.04323123
697.00000000	0.04226899
698.00000000	0.04210587
699.00000000	0.04172368
700.00000000	0.04177824
701.00000000	0.04146369
702.00000000	0.04183118
703.00000000	0.04208795
704.00000000	0.04001463
705.00000000	0.04005845
706.00000000	0.03989590
707.00000000	0.04021478
708.00000000	0.03835758
709.00000000	0.03868085
710.00000000	0.03850013
711.00000000	0.03839255
712.00000000	0.03896567
713.00000000	0.03765508
714.00000000	0.03666217
715.00000000	0.03702717
716.00000000	0.03722488
717.00000000	0.03680029
718.00000000	0.03537575
719.00000000	0.03608684
720.00000000	0.03612076
721.00000000	0.03728825
722.00000000	0.03549274
723.00000000	0.03635037
724.00000000	0.03489984
725.00000000	0.03540329
726.00000000	0.03577201
727.00000000	0.03384852
728.00000000	0.03562500
729.00000000	0.03594241
730.00000000	0.03461040
731.00000000	0.03405033
732.00000000	0.03428996
733.00000000	0.03349808
734.00000000	0.03330571
735.00000000	0.03359240
736.00000000	0.03385784
737.00000000	0.03272213
738.00000000	0.03221652
739.00000000	0.03337466
740.00000000	0.03272709
741.00000000	0.03205338
742.00000000	0.03123400
743.00000000	0.03116310
744.00000000	0.03119574
745.00000000	0.03106283
746.00000000	0.03146688
747.00000000	0.03090952
748.00000000	0.03182490
749.00000000	0.03198066
750.00000000	0.03116657
751.00000000	0.03326481
752.00000000	0.03240337
753.00000000	0.03297779
754.00000000	0.03092158
755.00000000	0.03182912
756.00000000	0.03248318
757.00000000	0.02988641
758.00000000	0.03170241
759.00000000	0.03023875
760.00000000	0.03105815
761.00000000	0.02991100
762.00000000	0.03120588
763.00000000	0.03110023
764.00000000	0.02953400
765.00000000	0.03251101
766.00000000	0.06590508
767.00000000	0.08118380
768.00000000	0.04692998
769.00000000	0.05394134
770.00000000	0.07888949
771.00000000	0.05246295
772.00000000	0.03923968
773.00000000	0.03720481
774.00000000	0.03413134
775.00000000	0.03119520
776.00000000	0.03105162
777.00000000	0.03117759
778.00000000	0.02936407
779.00000000	0.03095530
780.00000000	0.03117172
781.00000000	0.03252806
782.00000000	0.03042562
783.00000000	0.03143461
784.00000000	0.03355795
785.00000000	0.03331797
786.00000000	0.03646017
787.00000000	0.03543869
788.00000000	0.03573474
789.00000000	0.03748525
790.00000000	0.03740740
791.00000000	0.03920596
792.00000000	0.04041751
793.00000000	0.04159630
794.00000000	0.04182712
795.00000000	0.04646066
796.00000000	0.04895126
797.00000000	0.04805877
798.00000000	0.05169055
799.00000000	0.05357658
800.00000000	0.05491323
801.00000000	0.05426418
802.00000000	0.05746973
803.00000000	0.05577919
804.00000000	0.05753955
805.00000000	0.05765117
806.00000000	0.05769550
807.00000000	0.05882730
808.00000000	0.05731402
809.00000000	0.05795824
810.00000000	0.05525643
811.00000000	0.05463600
812.00000000	0.05774145
813.00000000	0.06637005
814.00000000	0.08112604
815.00000000	0.11773255
816.00000000	0.19030500
817.00000000	0.39977820
818.00000000	0.77531362
819.00000000	1.00000000
820.00000000	0.99638212
821.00000000	0.79136409
822.00000000	0.52460447
823.00000000	0.35448131
824.00000000	0.22365678
825.00000000	0.14447378
826.00000000	0.09315530
827.00000000	0.06749813
828.00000000	0.04946511
829.00000000	0.03945689
830.00000000	0.03229893
831.00000000	0.02649135
832.00000000	0.02615636
833.00000000	0.02075397
834.00000000	0.01946140
835.00000000	0.01789632
836.00000000	0.01823059
837.00000000	0.01666821
838.00000000	0.01312616
839.00000000	0.00895706
840.00000000	0.01090770
841.00000000	0.00733933
842.00000000	0.00974394
843.00000000	0.00838711
844.00000000	0.01097625
845.00000000	0.00746396
846.00000000	0.00765296
847.00000000	0.01066982
848.00000000	0.00669415
849.00000000	0.00556672
850.00000000	0.00318566
851.00000000	0.00722399
852.00000000	0.00709299
853.00000000	0.00500303
854.00000000	0.00702684
855.00000000	0.00709945
856.00000000	0.00488279
857.00000000	0.00161853
858.00000000	0.00329700
859.00000000	0.00617075
860.00000000	0.00618992
861.00000000	0.00600155
862.00000000	0.00436033
863.00000000	0.00425644
864.00000000	0.00359783
865.00000000	0.00842975
866.00000000	0.00523055
867.00000000	0.00506330
868.00000000	0.00414567
869.00000000	0.00276793
870.00000000	0.00139303
871.00000000	0.00523706
872.00000000	0.00392625
873.00000000	0.00507905
874.00000000	0.00394105
875.00000000	0.00390278
876.00000000	0.00293842
877.00000000	0.00388739
878.00000000	0.00443233
879.00000000	0.00169817
880.00000000	0.00650536
881.00000000	0.00473773
882.00000000	0.00760217
883.00000000	0.00770609
884.00000000	0.00403157
885.00000000	0.00478217
886.00000000	0.00449787
887.00000000	0.00076467
888.00000000	0.00056847
889.00000000	0.00014053
890.00000000	0.00359982
891.00000000	0.00504850
892.00000000	0.00487517
893.00000000	0.00660753
894.00000000	0.00004387
895.00000000	0.00126658
896.00000000	0.00112970
897.00000000	0.00000000
898.00000000	0.00227146
899.00000000	0.00225988
900.00000000	0.00298236
