#LICA Lamps Spectra Database
#Website 1: https://guaix.fis.ucm.es/lamps_spectra
#Website 2: http://carlostapia.es/lamparas/lamps.html
#Latest update: 2017/12/15
#Tester: Carlos Eugenio Tapia Ayuga
#Correct for Electrical Dark: Yes (JAZA2310)
#Correct for Detector Non-linearity: Yes (JAZA2310)
#Correct for Flux: Yes
#Start wavelength (nm): 300
#End wavelength (nm): 900
#Steps (nm):	1
#Locus: D65 sRGB Gamma 1 CIE1931
#XYZ coordinates: 0.1583	0.1220	0.0141
#xyY coordinates: 0.5378	0.4143	0.1220
#sRGB: 81	19	0
#CCT Lindbloom (K):	1920
#CCT McCamy (K):	1906
#CCT Hernández-Andrés (K):	1576
#Melatonin: 0.116
#Chlorophyll a: 0.115
#Chlorophyll b: 0.311
#Beta Carotene: 0.117
#Manufacturer: Unknown
#Luminance manufacturer: Unknown
#Other data:
#Begin Processed Spectral Data
W	S
300.00000000	0.00000000
301.00000000	0.00000000
302.00000000	0.00000000
303.00000000	0.00000000
304.00000000	0.00000000
305.00000000	0.00000000
306.00000000	0.00000000
307.00000000	0.00000000
308.00000000	0.00000000
309.00000000	0.00000000
310.00000000	0.00011617
311.00000000	0.00000000
312.00000000	0.00000000
313.00000000	0.00000000
314.00000000	0.00000000
315.00000000	0.00000000
316.00000000	0.00000000
317.00000000	0.00000000
318.00000000	0.00000000
319.00000000	0.00000000
320.00000000	0.00000000
321.00000000	0.00000000
322.00000000	0.00000000
323.00000000	0.00000000
324.00000000	0.00000000
325.00000000	0.00000000
326.00000000	0.00000000
327.00000000	0.00000000
328.00000000	0.00000000
329.00000000	0.00000000
330.00000000	0.00133857
331.00000000	0.00268038
332.00000000	0.00204494
333.00000000	0.00000000
334.00000000	0.00000000
335.00000000	0.00000000
336.00000000	0.00000000
337.00000000	0.00000000
338.00000000	0.00000000
339.00000000	0.00000000
340.00000000	0.00000000
341.00000000	0.00000000
342.00000000	0.00000000
343.00000000	0.00000000
344.00000000	0.00003377
345.00000000	0.00000000
346.00000000	0.00000000
347.00000000	0.00000000
348.00000000	0.00000000
349.00000000	0.00000000
350.00000000	0.00000000
351.00000000	0.00007626
352.00000000	0.00000000
353.00000000	0.00000000
354.00000000	0.00000000
355.00000000	0.00000000
356.00000000	0.00000000
357.00000000	0.00000000
358.00000000	0.00000000
359.00000000	0.00008628
360.00000000	0.00000000
361.00000000	0.00010744
362.00000000	0.00000000
363.00000000	0.00079797
364.00000000	0.00244530
365.00000000	0.00497978
366.00000000	0.00248650
367.00000000	0.00000000
368.00000000	0.00079910
369.00000000	0.00081251
370.00000000	0.00096342
371.00000000	0.00086422
372.00000000	0.00105939
373.00000000	0.00059456
374.00000000	0.00000000
375.00000000	0.00060523
376.00000000	0.00000000
377.00000000	0.00194606
378.00000000	0.00077988
379.00000000	0.00130367
380.00000000	0.00021343
381.00000000	0.00194994
382.00000000	0.00150450
383.00000000	0.00236451
384.00000000	0.00277311
385.00000000	0.00257746
386.00000000	0.00067599
387.00000000	0.00111383
388.00000000	0.00119187
389.00000000	0.00162325
390.00000000	0.00244207
391.00000000	0.00160289
392.00000000	0.00242526
393.00000000	0.00159611
394.00000000	0.00278636
395.00000000	0.00266373
396.00000000	0.00337495
397.00000000	0.00223268
398.00000000	0.00349757
399.00000000	0.00331387
400.00000000	0.00451689
401.00000000	0.00457926
402.00000000	0.00386336
403.00000000	0.00400263
404.00000000	0.00615275
405.00000000	0.00836636
406.00000000	0.00626051
407.00000000	0.00424417
408.00000000	0.00435290
409.00000000	0.00416048
410.00000000	0.00456278
411.00000000	0.00406176
412.00000000	0.00524830
413.00000000	0.00414545
414.00000000	0.00536527
415.00000000	0.00585740
416.00000000	0.00602155
417.00000000	0.00632433
418.00000000	0.00547546
419.00000000	0.00674246
420.00000000	0.00698416
421.00000000	0.00558888
422.00000000	0.00625211
423.00000000	0.00726723
424.00000000	0.00690532
425.00000000	0.00727256
426.00000000	0.00741312
427.00000000	0.00784014
428.00000000	0.00725769
429.00000000	0.00819671
430.00000000	0.00795889
431.00000000	0.00828638
432.00000000	0.00880501
433.00000000	0.00808216
434.00000000	0.00873505
435.00000000	0.01372323
436.00000000	0.02012721
437.00000000	0.01533743
438.00000000	0.01289504
439.00000000	0.01231325
440.00000000	0.01221695
441.00000000	0.01228303
442.00000000	0.01058595
443.00000000	0.00984178
444.00000000	0.00746983
445.00000000	0.00788231
446.00000000	0.00909453
447.00000000	0.01087660
448.00000000	0.01286629
449.00000000	0.01782490
450.00000000	0.02279450
451.00000000	0.02251241
452.00000000	0.01781456
453.00000000	0.01334404
454.00000000	0.01442669
455.00000000	0.01317439
456.00000000	0.01177992
457.00000000	0.00899986
458.00000000	0.00798910
459.00000000	0.00657605
460.00000000	0.00682340
461.00000000	0.00657863
462.00000000	0.00899097
463.00000000	0.01205603
464.00000000	0.01378721
465.00000000	0.01638858
466.00000000	0.03038453
467.00000000	0.05158292
468.00000000	0.04777934
469.00000000	0.03299059
470.00000000	0.02277075
471.00000000	0.01828778
472.00000000	0.01325485
473.00000000	0.00983240
474.00000000	0.00878207
475.00000000	0.01466193
476.00000000	0.01503498
477.00000000	0.00729146
478.00000000	0.00416323
479.00000000	0.00204704
480.00000000	0.00142598
481.00000000	0.00140223
482.00000000	0.00216385
483.00000000	0.00129059
484.00000000	0.00179613
485.00000000	0.00206998
486.00000000	0.00181212
487.00000000	0.00212120
488.00000000	0.00226774
489.00000000	0.00297749
490.00000000	0.00390230
491.00000000	0.00606954
492.00000000	0.00657104
493.00000000	0.00579843
494.00000000	0.00668640
495.00000000	0.00921571
496.00000000	0.01912566
497.00000000	0.04921179
498.00000000	0.13326021
499.00000000	0.15993794
500.00000000	0.08823540
501.00000000	0.04363793
502.00000000	0.02139873
503.00000000	0.01139878
504.00000000	0.00699854
505.00000000	0.00539290
506.00000000	0.00378128
507.00000000	0.00360728
508.00000000	0.00326880
509.00000000	0.00268199
510.00000000	0.00326201
511.00000000	0.00292369
512.00000000	0.00303550
513.00000000	0.00328495
514.00000000	0.00540324
515.00000000	0.03016173
516.00000000	0.04090311
517.00000000	0.01578368
518.00000000	0.00827006
519.00000000	0.00409165
520.00000000	0.00270509
521.00000000	0.00244271
522.00000000	0.00249118
523.00000000	0.00282934
524.00000000	0.00242542
525.00000000	0.00215206
526.00000000	0.00206529
527.00000000	0.00301966
528.00000000	0.00259394
529.00000000	0.00264935
530.00000000	0.00286278
531.00000000	0.00229956
532.00000000	0.00249974
533.00000000	0.00312226
534.00000000	0.00306490
535.00000000	0.00295601
536.00000000	0.00277004
537.00000000	0.00325264
538.00000000	0.00295827
539.00000000	0.00337995
540.00000000	0.00275373
541.00000000	0.00309560
542.00000000	0.00335669
543.00000000	0.00405595
544.00000000	0.00410038
545.00000000	0.00505103
546.00000000	0.01563019
547.00000000	0.01410420
548.00000000	0.00969314
549.00000000	0.01077756
550.00000000	0.01297680
551.00000000	0.01699849
552.00000000	0.01985675
553.00000000	0.02274587
554.00000000	0.02505610
555.00000000	0.02638449
556.00000000	0.03270171
557.00000000	0.04144080
558.00000000	0.05356017
559.00000000	0.06751815
560.00000000	0.07888931
561.00000000	0.08436396
562.00000000	0.08698908
563.00000000	0.08685595
564.00000000	0.08802197
565.00000000	0.09431075
566.00000000	0.11482653
567.00000000	0.17420936
568.00000000	0.36137565
569.00000000	0.70911305
570.00000000	0.51429453
571.00000000	0.27993748
572.00000000	0.18848208
573.00000000	0.13754719
574.00000000	0.11765038
575.00000000	0.11483315
576.00000000	0.11951597
577.00000000	0.12739053
578.00000000	0.13798245
579.00000000	0.15259946
580.00000000	0.17128664
581.00000000	0.19381908
582.00000000	0.22540307
583.00000000	0.26304110
584.00000000	0.31574739
585.00000000	0.39045279
586.00000000	0.48210854
587.00000000	0.54069146
588.00000000	0.38006638
589.00000000	0.15235211
590.00000000	0.07782992
591.00000000	0.10681933
592.00000000	0.28688885
593.00000000	0.46325786
594.00000000	0.52457463
595.00000000	0.52650324
596.00000000	0.49990968
597.00000000	0.45756880
598.00000000	0.42067140
599.00000000	0.38555961
600.00000000	0.35569177
601.00000000	0.32566785
602.00000000	0.29706425
603.00000000	0.27549022
604.00000000	0.25412332
605.00000000	0.23335792
606.00000000	0.21845688
607.00000000	0.20155420
608.00000000	0.18735774
609.00000000	0.17549688
610.00000000	0.16377496
611.00000000	0.15554771
612.00000000	0.14470908
613.00000000	0.13736188
614.00000000	0.13190435
615.00000000	0.15864105
616.00000000	0.26012694
617.00000000	0.22310286
618.00000000	0.14715745
619.00000000	0.12465296
620.00000000	0.10608130
621.00000000	0.09726935
622.00000000	0.09213802
623.00000000	0.08768947
624.00000000	0.08449224
625.00000000	0.08104265
626.00000000	0.07945705
627.00000000	0.07674032
628.00000000	0.07399839
629.00000000	0.07230777
630.00000000	0.06880179
631.00000000	0.06880292
632.00000000	0.06488705
633.00000000	0.06346996
634.00000000	0.06069959
635.00000000	0.06058924
636.00000000	0.05909104
637.00000000	0.05748896
638.00000000	0.05715387
639.00000000	0.05554015
640.00000000	0.05183060
641.00000000	0.05198490
642.00000000	0.05044437
643.00000000	0.05071612
644.00000000	0.04786158
645.00000000	0.04749273
646.00000000	0.04748659
647.00000000	0.04590163
648.00000000	0.04528493
649.00000000	0.04275530
650.00000000	0.04093461
651.00000000	0.04065688
652.00000000	0.03962157
653.00000000	0.03875590
654.00000000	0.03904009
655.00000000	0.03997346
656.00000000	0.03939198
657.00000000	0.03895188
658.00000000	0.03758584
659.00000000	0.03798184
660.00000000	0.03715462
661.00000000	0.03463113
662.00000000	0.03352424
663.00000000	0.03093386
664.00000000	0.03122257
665.00000000	0.03217355
666.00000000	0.03170226
667.00000000	0.03345186
668.00000000	0.03317623
669.00000000	0.03393252
670.00000000	0.03592527
671.00000000	0.03641659
672.00000000	0.03609556
673.00000000	0.03569665
674.00000000	0.03522213
675.00000000	0.03307476
676.00000000	0.03397404
677.00000000	0.03285584
678.00000000	0.03043801
679.00000000	0.02726809
680.00000000	0.02702316
681.00000000	0.02536113
682.00000000	0.02454232
683.00000000	0.02207198
684.00000000	0.02014870
685.00000000	0.01894907
686.00000000	0.01885730
687.00000000	0.01859928
688.00000000	0.01727994
689.00000000	0.01641831
690.00000000	0.01522918
691.00000000	0.01471330
692.00000000	0.01361337
693.00000000	0.01310411
694.00000000	0.01367686
695.00000000	0.01503353
696.00000000	0.01401033
697.00000000	0.01379367
698.00000000	0.01231486
699.00000000	0.01316066
700.00000000	0.01321430
701.00000000	0.01093396
702.00000000	0.01232326
703.00000000	0.00978636
704.00000000	0.01166472
705.00000000	0.01117033
706.00000000	0.01098695
707.00000000	0.01211501
708.00000000	0.01024456
709.00000000	0.01195037
710.00000000	0.01135775
711.00000000	0.01028043
712.00000000	0.01177588
713.00000000	0.00944691
714.00000000	0.01088533
715.00000000	0.01036008
716.00000000	0.01066334
717.00000000	0.01122849
718.00000000	0.01042454
719.00000000	0.01066625
720.00000000	0.00873554
721.00000000	0.00717562
722.00000000	0.00877027
723.00000000	0.00908904
724.00000000	0.00887287
725.00000000	0.00907822
726.00000000	0.00897756
727.00000000	0.00960023
728.00000000	0.00685103
729.00000000	0.00901650
730.00000000	0.00874668
731.00000000	0.00737806
732.00000000	0.00844762
733.00000000	0.00827394
734.00000000	0.00840142
735.00000000	0.00750828
736.00000000	0.00655133
737.00000000	0.00578777
738.00000000	0.00783658
739.00000000	0.00625792
740.00000000	0.00835731
741.00000000	0.00754431
742.00000000	0.00753252
743.00000000	0.00584464
744.00000000	0.00616002
745.00000000	0.00588293
746.00000000	0.00733331
747.00000000	0.00576693
748.00000000	0.00758632
749.00000000	0.00687640
750.00000000	0.00773027
751.00000000	0.00751378
752.00000000	0.00673567
753.00000000	0.00835505
754.00000000	0.00443417
755.00000000	0.00605645
756.00000000	0.00537610
757.00000000	0.00405756
758.00000000	0.00623143
759.00000000	0.00615630
760.00000000	0.00471400
761.00000000	0.00600330
762.00000000	0.00377757
763.00000000	0.00581766
764.00000000	0.00495716
765.00000000	0.00457409
766.00000000	0.01540368
767.00000000	0.02695094
768.00000000	0.01471864
769.00000000	0.00830997
770.00000000	0.01982508
771.00000000	0.01516327
772.00000000	0.00668688
773.00000000	0.00438118
774.00000000	0.00335152
775.00000000	0.00388937
776.00000000	0.00079313
777.00000000	0.00598553
778.00000000	0.00522536
779.00000000	0.00476845
780.00000000	0.00000000
781.00000000	0.00422979
782.00000000	0.00500482
783.00000000	0.00426194
784.00000000	0.00242155
785.00000000	0.00363426
786.00000000	0.00181115
787.00000000	0.00422817
788.00000000	0.00627974
789.00000000	0.00470318
790.00000000	0.00107425
791.00000000	0.00485392
792.00000000	0.00368661
793.00000000	0.00546011
794.00000000	0.00445679
795.00000000	0.00444096
796.00000000	0.00481062
797.00000000	0.00548984
798.00000000	0.00616664
799.00000000	0.00582154
800.00000000	0.00762073
801.00000000	0.00791866
802.00000000	0.00696542
803.00000000	0.00511856
804.00000000	0.00738436
805.00000000	0.00529305
806.00000000	0.00946420
807.00000000	0.01252490
808.00000000	0.00751184
809.00000000	0.00823307
810.00000000	0.00945499
811.00000000	0.01032066
812.00000000	0.01212405
813.00000000	0.01695939
814.00000000	0.01810037
815.00000000	0.02842102
816.00000000	0.04735976
817.00000000	0.11287158
818.00000000	0.42942858
819.00000000	0.86319908
820.00000000	1.00000000
821.00000000	0.75446778
822.00000000	0.43604761
823.00000000	0.25121950
824.00000000	0.14162398
825.00000000	0.08535387
826.00000000	0.05843266
827.00000000	0.03579424
828.00000000	0.02556374
829.00000000	0.02262502
830.00000000	0.01537039
831.00000000	0.00947728
832.00000000	0.01052488
833.00000000	0.00931265
834.00000000	0.00814679
835.00000000	0.00649462
836.00000000	0.00405481
837.00000000	0.00735253
838.00000000	0.00505878
839.00000000	0.00202620
840.00000000	0.00541762
841.00000000	0.00000000
842.00000000	0.00578114
843.00000000	0.00187174
844.00000000	0.00000000
845.00000000	0.00000000
846.00000000	0.00591476
847.00000000	0.00000000
848.00000000	0.00058794
849.00000000	0.00000000
850.00000000	0.00000000
851.00000000	0.00000000
852.00000000	0.00000000
853.00000000	0.00000000
854.00000000	0.00000000
855.00000000	0.00180501
856.00000000	0.00000000
857.00000000	0.00000000
858.00000000	0.00000000
859.00000000	0.00612980
860.00000000	0.00000000
861.00000000	0.00000000
862.00000000	0.00000000
863.00000000	0.00259911
864.00000000	0.00000000
865.00000000	0.00000000
866.00000000	0.00000000
867.00000000	0.00000000
868.00000000	0.00110689
869.00000000	0.00000000
870.00000000	0.00000000
871.00000000	0.00000000
872.00000000	0.00000000
873.00000000	0.00000000
874.00000000	0.00000000
875.00000000	0.00000000
876.00000000	0.00000000
877.00000000	0.00000000
878.00000000	0.00000000
879.00000000	0.00000000
880.00000000	0.00000000
881.00000000	0.00000000
882.00000000	0.00000000
883.00000000	0.00000000
884.00000000	0.00000000
885.00000000	0.00000000
886.00000000	0.00000000
887.00000000	0.00060264
888.00000000	0.00000000
889.00000000	0.00000000
890.00000000	0.00000000
891.00000000	0.00000000
892.00000000	0.00000000
893.00000000	0.00000000
894.00000000	0.00147283
895.00000000	0.00000000
896.00000000	0.00000000
897.00000000	0.00348707
898.00000000	0.00000000
899.00000000	0.00000000
900.00000000	0.00000000
