#LICA Lamps Spectra Database
#Website 1: https://guaix.fis.ucm.es/lamps_spectra
#Website 2: http://carlostapia.es/lamparas/lamps.html
#Latest update: 2017/12/26
#Tester: Carlos Eugenio Tapia Ayuga
#Correct for Electrical Dark: Yes (JAZA2310)
#Correct for Detector Non-linearity: Yes (JAZA2310)
#Correct for Flux: Yes
#Start wavelength (nm): 300
#End wavelength (nm): 900
#Steps (nm):	1
#Locus: D65 sRGB Gamma 1 CIE1931
#XYZ coordinates: 0.1893	0.1404	0.0205
#xyY coordinates: 0.5406	0.4009	0.1404
#sRGB: 99	21	1
#CCT Lindbloom (K):	1819
#CCT McCamy (K):	1809
#CCT Hernández-Andrés (K):	1413
#Melatonin: 0.138
#Chlorophyll a: 0.228
#Chlorophyll b: 0.367
#Beta Carotene: 0.229
#Manufacturer: Unknown
#Luminance manufacturer: Unknown
#Other data: Riba-Roja de Turia streetlamps. Plaça de l'Ajuntament
#Begin Processed Spectral Data
W	S
300.00000000	0.00000000
301.00000000	0.00000000
302.00000000	0.00000000
303.00000000	0.00000000
304.00000000	0.00000000
305.00000000	0.00000000
306.00000000	0.00000000
307.00000000	0.00000000
308.00000000	0.00000000
309.00000000	0.00000000
310.00000000	0.00000000
311.00000000	0.00000000
312.00000000	0.00000000
313.00000000	0.00000000
314.00000000	0.00000000
315.00000000	0.00000000
316.00000000	0.00000000
317.00000000	0.00000000
318.00000000	0.00000000
319.00000000	0.00000000
320.00000000	0.00000000
321.00000000	0.00000000
322.00000000	0.00000000
323.00000000	0.00000000
324.00000000	0.00000000
325.00000000	0.00000000
326.00000000	0.00000000
327.00000000	0.00000000
328.00000000	0.00000000
329.00000000	0.00000000
330.00000000	0.00000000
331.00000000	0.00000000
332.00000000	0.00000000
333.00000000	0.00000000
334.00000000	0.00000000
335.00000000	0.00000000
336.00000000	0.00000000
337.00000000	0.00000000
338.00000000	0.00000000
339.00000000	0.00000000
340.00000000	0.00000000
341.00000000	0.00000000
342.00000000	0.00000000
343.00000000	0.00120621
344.00000000	0.00000000
345.00000000	0.00000000
346.00000000	0.00000000
347.00000000	0.00000000
348.00000000	0.00000000
349.00000000	0.00000000
350.00000000	0.00000000
351.00000000	0.00005073
352.00000000	0.00000000
353.00000000	0.00020846
354.00000000	0.00000000
355.00000000	0.00004442
356.00000000	0.00010442
357.00000000	0.00000000
358.00000000	0.00000000
359.00000000	0.00017958
360.00000000	0.00005512
361.00000000	0.00017030
362.00000000	0.00017903
363.00000000	0.00000040
364.00000000	0.00085770
365.00000000	0.00078525
366.00000000	0.00011906
367.00000000	0.00128866
368.00000000	0.00007301
369.00000000	0.00000000
370.00000000	0.00042769
371.00000000	0.00178262
372.00000000	0.00137836
373.00000000	0.00186514
374.00000000	0.00213096
375.00000000	0.00026636
376.00000000	0.00116728
377.00000000	0.00087125
378.00000000	0.00173221
379.00000000	0.00071823
380.00000000	0.00021558
381.00000000	0.00151765
382.00000000	0.00133289
383.00000000	0.00103131
384.00000000	0.00089582
385.00000000	0.00116240
386.00000000	0.00162816
387.00000000	0.00202927
388.00000000	0.00116911
389.00000000	0.00156234
390.00000000	0.00168903
391.00000000	0.00198280
392.00000000	0.00300086
393.00000000	0.00240673
394.00000000	0.00315937
395.00000000	0.00306491
396.00000000	0.00349121
397.00000000	0.00411090
398.00000000	0.00468341
399.00000000	0.00370277
400.00000000	0.00406918
401.00000000	0.00416967
402.00000000	0.00458991
403.00000000	0.00387650
404.00000000	0.00478735
405.00000000	0.00760351
406.00000000	0.00750804
407.00000000	0.00604015
408.00000000	0.00531171
409.00000000	0.00660855
410.00000000	0.00575962
411.00000000	0.00691966
412.00000000	0.00735313
413.00000000	0.00650532
414.00000000	0.00666387
415.00000000	0.00730231
416.00000000	0.00751398
417.00000000	0.00821371
418.00000000	0.00886252
419.00000000	0.00810038
420.00000000	0.00807674
421.00000000	0.00965742
422.00000000	0.01028458
423.00000000	0.00947859
424.00000000	0.00992190
425.00000000	0.01044557
426.00000000	0.01010997
427.00000000	0.01165130
428.00000000	0.01203336
429.00000000	0.01212075
430.00000000	0.01149903
431.00000000	0.01303959
432.00000000	0.01391439
433.00000000	0.01363435
434.00000000	0.01386896
435.00000000	0.01418059
436.00000000	0.01732762
437.00000000	0.01861569
438.00000000	0.01714530
439.00000000	0.01812150
440.00000000	0.01722343
441.00000000	0.01702350
442.00000000	0.01603108
443.00000000	0.01438103
444.00000000	0.01321137
445.00000000	0.01338617
446.00000000	0.01468685
447.00000000	0.01649491
448.00000000	0.01892835
449.00000000	0.02403925
450.00000000	0.02882728
451.00000000	0.03140792
452.00000000	0.02760863
453.00000000	0.02524249
454.00000000	0.02143097
455.00000000	0.02209135
456.00000000	0.01990540
457.00000000	0.01615769
458.00000000	0.01350653
459.00000000	0.01268238
460.00000000	0.01309877
461.00000000	0.01300437
462.00000000	0.01442653
463.00000000	0.01695184
464.00000000	0.01989313
465.00000000	0.02475219
466.00000000	0.03661395
467.00000000	0.05943027
468.00000000	0.06457943
469.00000000	0.05210358
470.00000000	0.04011820
471.00000000	0.03228445
472.00000000	0.02653398
473.00000000	0.02062501
474.00000000	0.01707798
475.00000000	0.01958793
476.00000000	0.02017638
477.00000000	0.01258515
478.00000000	0.00756294
479.00000000	0.00535673
480.00000000	0.00421725
481.00000000	0.00371503
482.00000000	0.00364567
483.00000000	0.00375968
484.00000000	0.00396065
485.00000000	0.00366342
486.00000000	0.00439312
487.00000000	0.00433193
488.00000000	0.00444541
489.00000000	0.00566010
490.00000000	0.00607051
491.00000000	0.00932006
492.00000000	0.00971549
493.00000000	0.00966155
494.00000000	0.01010780
495.00000000	0.01318190
496.00000000	0.02226595
497.00000000	0.05446993
498.00000000	0.13912883
499.00000000	0.18348569
500.00000000	0.12694085
501.00000000	0.07350229
502.00000000	0.03999362
503.00000000	0.02146809
504.00000000	0.01339509
505.00000000	0.01006384
506.00000000	0.00812304
507.00000000	0.00742370
508.00000000	0.00685839
509.00000000	0.00618855
510.00000000	0.00632048
511.00000000	0.00602800
512.00000000	0.00614098
513.00000000	0.00659537
514.00000000	0.00963059
515.00000000	0.03426678
516.00000000	0.04716502
517.00000000	0.02679810
518.00000000	0.01641462
519.00000000	0.00998712
520.00000000	0.00720811
521.00000000	0.00609932
522.00000000	0.00589556
523.00000000	0.00611537
524.00000000	0.00567228
525.00000000	0.00652342
526.00000000	0.00614045
527.00000000	0.00609720
528.00000000	0.00620089
529.00000000	0.00626471
530.00000000	0.00684091
531.00000000	0.00633303
532.00000000	0.00666979
533.00000000	0.00656582
534.00000000	0.00677498
535.00000000	0.00671629
536.00000000	0.00722001
537.00000000	0.00758873
538.00000000	0.00793194
539.00000000	0.00807041
540.00000000	0.00868175
541.00000000	0.00863265
542.00000000	0.00890114
543.00000000	0.00906567
544.00000000	0.00977647
545.00000000	0.01117859
546.00000000	0.01775962
547.00000000	0.01957873
548.00000000	0.02023574
549.00000000	0.02459463
550.00000000	0.03162739
551.00000000	0.03895441
552.00000000	0.04473322
553.00000000	0.04797905
554.00000000	0.04907740
555.00000000	0.04660261
556.00000000	0.04774001
557.00000000	0.04879573
558.00000000	0.05141350
559.00000000	0.05383261
560.00000000	0.05582455
561.00000000	0.06041360
562.00000000	0.06283853
563.00000000	0.06721996
564.00000000	0.07379673
565.00000000	0.08395602
566.00000000	0.11577130
567.00000000	0.18802552
568.00000000	0.38615984
569.00000000	0.64582902
570.00000000	0.54607530
571.00000000	0.35398864
572.00000000	0.25195849
573.00000000	0.18315611
574.00000000	0.15313601
575.00000000	0.15139654
576.00000000	0.15988037
577.00000000	0.17436586
578.00000000	0.19382453
579.00000000	0.21775967
580.00000000	0.24916095
581.00000000	0.28521340
582.00000000	0.33015557
583.00000000	0.38336241
584.00000000	0.43090709
585.00000000	0.46653106
586.00000000	0.43862762
587.00000000	0.31426551
588.00000000	0.17071728
589.00000000	0.08511059
590.00000000	0.04472266
591.00000000	0.03772182
592.00000000	0.08571071
593.00000000	0.18654659
594.00000000	0.30046974
595.00000000	0.39547936
596.00000000	0.45433407
597.00000000	0.48901280
598.00000000	0.49574542
599.00000000	0.49280344
600.00000000	0.47778660
601.00000000	0.46237824
602.00000000	0.44382798
603.00000000	0.42224898
604.00000000	0.40066945
605.00000000	0.37392854
606.00000000	0.35301088
607.00000000	0.33234654
608.00000000	0.31296003
609.00000000	0.29633244
610.00000000	0.27897538
611.00000000	0.26279308
612.00000000	0.25035543
613.00000000	0.23593924
614.00000000	0.22794532
615.00000000	0.26299155
616.00000000	0.33783973
617.00000000	0.29672493
618.00000000	0.23560518
619.00000000	0.20623278
620.00000000	0.18537912
621.00000000	0.16752521
622.00000000	0.16029758
623.00000000	0.15175901
624.00000000	0.14582046
625.00000000	0.14169809
626.00000000	0.13711550
627.00000000	0.13266616
628.00000000	0.12699912
629.00000000	0.12377000
630.00000000	0.11886045
631.00000000	0.11726135
632.00000000	0.11347367
633.00000000	0.11166299
634.00000000	0.10685430
635.00000000	0.10492153
636.00000000	0.10250296
637.00000000	0.10208876
638.00000000	0.09800772
639.00000000	0.09628231
640.00000000	0.09480260
641.00000000	0.09413575
642.00000000	0.09230914
643.00000000	0.09052759
644.00000000	0.08977364
645.00000000	0.08878666
646.00000000	0.08786247
647.00000000	0.08777468
648.00000000	0.08484997
649.00000000	0.08330382
650.00000000	0.08119856
651.00000000	0.07645962
652.00000000	0.07579256
653.00000000	0.07628641
654.00000000	0.07597064
655.00000000	0.07749667
656.00000000	0.07720943
657.00000000	0.07820572
658.00000000	0.07568487
659.00000000	0.07504262
660.00000000	0.07135704
661.00000000	0.06974290
662.00000000	0.06638843
663.00000000	0.06527190
664.00000000	0.06357261
665.00000000	0.06440081
666.00000000	0.06655806
667.00000000	0.06791323
668.00000000	0.07012454
669.00000000	0.07436897
670.00000000	0.07502624
671.00000000	0.07710106
672.00000000	0.07661238
673.00000000	0.07533741
674.00000000	0.07534911
675.00000000	0.07471262
676.00000000	0.07090036
677.00000000	0.06673687
678.00000000	0.06302099
679.00000000	0.05982443
680.00000000	0.05608812
681.00000000	0.05265647
682.00000000	0.04874679
683.00000000	0.04464063
684.00000000	0.04122032
685.00000000	0.03839479
686.00000000	0.03543204
687.00000000	0.03284189
688.00000000	0.03325671
689.00000000	0.02999844
690.00000000	0.02937641
691.00000000	0.02892536
692.00000000	0.02741240
693.00000000	0.02675641
694.00000000	0.02658840
695.00000000	0.02545225
696.00000000	0.02512602
697.00000000	0.02419125
698.00000000	0.02456948
699.00000000	0.02379113
700.00000000	0.02278383
701.00000000	0.02293336
702.00000000	0.02224429
703.00000000	0.02288532
704.00000000	0.02212023
705.00000000	0.02265695
706.00000000	0.02194354
707.00000000	0.02218410
708.00000000	0.02152243
709.00000000	0.02180488
710.00000000	0.02135291
711.00000000	0.02182315
712.00000000	0.02167378
713.00000000	0.02117675
714.00000000	0.02285358
715.00000000	0.02139206
716.00000000	0.02104288
717.00000000	0.02130691
718.00000000	0.02029664
719.00000000	0.02111359
720.00000000	0.02003733
721.00000000	0.02028696
722.00000000	0.02029977
723.00000000	0.02071223
724.00000000	0.01978885
725.00000000	0.02107856
726.00000000	0.01997296
727.00000000	0.01783877
728.00000000	0.01911768
729.00000000	0.02141088
730.00000000	0.02037598
731.00000000	0.02099080
732.00000000	0.02033179
733.00000000	0.01946628
734.00000000	0.01949975
735.00000000	0.01961973
736.00000000	0.01885375
737.00000000	0.02056713
738.00000000	0.01986780
739.00000000	0.01927608
740.00000000	0.01900504
741.00000000	0.01910073
742.00000000	0.01926485
743.00000000	0.01789028
744.00000000	0.01929879
745.00000000	0.01826305
746.00000000	0.01866129
747.00000000	0.01852687
748.00000000	0.01749656
749.00000000	0.01930309
750.00000000	0.02046607
751.00000000	0.02160723
752.00000000	0.02060611
753.00000000	0.02000023
754.00000000	0.01904994
755.00000000	0.01576041
756.00000000	0.01972711
757.00000000	0.01543217
758.00000000	0.01705930
759.00000000	0.01706758
760.00000000	0.01801603
761.00000000	0.01581936
762.00000000	0.02000667
763.00000000	0.01741121
764.00000000	0.01716536
765.00000000	0.01831440
766.00000000	0.03905349
767.00000000	0.04092759
768.00000000	0.03048839
769.00000000	0.03253907
770.00000000	0.03911960
771.00000000	0.03243829
772.00000000	0.02201608
773.00000000	0.01753524
774.00000000	0.01734233
775.00000000	0.01491340
776.00000000	0.01248294
777.00000000	0.01429885
778.00000000	0.01567576
779.00000000	0.01614942
780.00000000	0.01890841
781.00000000	0.01553464
782.00000000	0.01541212
783.00000000	0.01689355
784.00000000	0.01304408
785.00000000	0.01406269
786.00000000	0.01609955
787.00000000	0.01411164
788.00000000	0.01385306
789.00000000	0.01673244
790.00000000	0.01721386
791.00000000	0.01596471
792.00000000	0.01756061
793.00000000	0.01705329
794.00000000	0.01569018
795.00000000	0.01690283
796.00000000	0.01807204
797.00000000	0.01715170
798.00000000	0.02041296
799.00000000	0.01826488
800.00000000	0.01861611
801.00000000	0.02430061
802.00000000	0.01979460
803.00000000	0.01989396
804.00000000	0.02239913
805.00000000	0.02027347
806.00000000	0.02096319
807.00000000	0.02668466
808.00000000	0.02221889
809.00000000	0.02367674
810.00000000	0.02651579
811.00000000	0.03007110
812.00000000	0.02929664
813.00000000	0.04173935
814.00000000	0.04602411
815.00000000	0.06302612
816.00000000	0.12058153
817.00000000	0.31196961
818.00000000	0.66341751
819.00000000	0.96683751
820.00000000	1.00000000
821.00000000	0.79281053
822.00000000	0.52516802
823.00000000	0.33126091
824.00000000	0.20143021
825.00000000	0.13126698
826.00000000	0.09234329
827.00000000	0.07114540
828.00000000	0.05904353
829.00000000	0.04747416
830.00000000	0.04422467
831.00000000	0.03476170
832.00000000	0.02791411
833.00000000	0.02079725
834.00000000	0.02336053
835.00000000	0.02055011
836.00000000	0.01794786
837.00000000	0.02018278
838.00000000	0.01563000
839.00000000	0.01463771
840.00000000	0.01182509
841.00000000	0.01503640
842.00000000	0.01351284
843.00000000	0.01462092
844.00000000	0.01335852
845.00000000	0.01091082
846.00000000	0.01231506
847.00000000	0.01053798
848.00000000	0.01002674
849.00000000	0.00826295
850.00000000	0.00800464
851.00000000	0.00621015
852.00000000	0.00947517
853.00000000	0.00677369
854.00000000	0.00542553
855.00000000	0.00480181
856.00000000	0.00451806
857.00000000	0.00717304
858.00000000	0.00580681
859.00000000	0.00623047
860.00000000	0.00707936
861.00000000	0.00591617
862.00000000	0.00888306
863.00000000	0.00240608
864.00000000	0.00685527
865.00000000	0.00308016
866.00000000	0.00195897
867.00000000	0.00008010
868.00000000	0.00784828
869.00000000	0.00362272
870.00000000	0.00325963
871.00000000	0.00404964
872.00000000	0.00301304
873.00000000	0.00138380
874.00000000	0.00337331
875.00000000	0.00333316
876.00000000	0.00173593
877.00000000	0.00447013
878.00000000	0.00234045
879.00000000	0.00297637
880.00000000	0.00027552
881.00000000	0.00167259
882.00000000	0.00015022
883.00000000	0.00101999
884.00000000	0.00215660
885.00000000	0.00279950
886.00000000	0.00000000
887.00000000	0.00019652
888.00000000	0.00067775
889.00000000	0.00001485
890.00000000	0.00841709
891.00000000	0.00776505
892.00000000	0.00048644
893.00000000	0.00164816
894.00000000	0.00483026
895.00000000	0.00052031
896.00000000	0.00161978
897.00000000	0.00000000
898.00000000	0.00108019
899.00000000	0.00000000
900.00000000	0.00474434
