#LICA Lamps Spectra Database
#Website 1: https://guaix.fis.ucm.es/lamps_spectra
#Website 2: http://carlostapia.es/lamparas/lamps.html
#Latest update: 2018/04/22
#Tester: Carlos Eugenio Tapia Ayuga
#Correct for Electrical Dark: Yes (JAZA2310)
#Correct for Detector Non-linearity: Yes (JAZA2310)
#Correct for Flux: Yes
#Start wavelength (nm): 300
#End wavelength (nm): 900
#Steps (nm):	1
#Locus: D65 sRGB Gamma 1 CIE1931
#XYZ coordinates: 0.7574	0.7579	0.4594
#xyY coordinates: 0.3836	0.3838	0.7579
#sRGB: 255	170	90
#CCT Lindbloom (K):	3969
#CCT McCamy (K):	3975
#CCT Hernández-Andrés (K):	3968
#Melatonin: 0.465
#Chlorophyll a: 0.094
#Chlorophyll b: 0.673
#Beta Carotene: 0.095
#Manufacturer: Philips
#Luminance manufacturer: Unknown
#Other data: New street lights on Villarrubia de los Ojos (Ciudad Real, Spain)
#Begin Processed Spectral Data
W	S
300.00000000	0.00000000
301.00000000	0.00506135
302.00000000	0.00077177
303.00000000	0.01342965
304.00000000	0.00000000
305.00000000	0.00000000
306.00000000	0.01114980
307.00000000	0.00375814
308.00000000	0.00002839
309.00000000	0.00664557
310.00000000	0.00434618
311.00000000	0.00475578
312.00000000	0.00000000
313.00000000	0.00000199
314.00000000	0.00131874
315.00000000	0.00181839
316.00000000	0.00110997
317.00000000	0.00252700
318.00000000	0.00295955
319.00000000	0.00833007
320.00000000	0.00168750
321.00000000	0.00005609
322.00000000	0.00012999
323.00000000	0.00202175
324.00000000	0.00615565
325.00000000	0.00258420
326.00000000	0.00793519
327.00000000	0.00001091
328.00000000	0.00000000
329.00000000	0.00000000
330.00000000	0.00000000
331.00000000	0.00157696
332.00000000	0.00079136
333.00000000	0.00000000
334.00000000	0.00262339
335.00000000	0.00000000
336.00000000	0.00013325
337.00000000	0.00140745
338.00000000	0.00541060
339.00000000	0.00315418
340.00000000	0.00227278
341.00000000	0.00106300
342.00000000	0.00000000
343.00000000	0.00182861
344.00000000	0.00000000
345.00000000	0.00417218
346.00000000	0.00000000
347.00000000	0.00004135
348.00000000	0.00121862
349.00000000	0.00017373
350.00000000	0.00126114
351.00000000	0.00088574
352.00000000	0.00398496
353.00000000	0.00059413
354.00000000	0.00083728
355.00000000	0.00012193
356.00000000	0.00227107
357.00000000	0.00000000
358.00000000	0.00400782
359.00000000	0.00001647
360.00000000	0.00078437
361.00000000	0.00084806
362.00000000	0.00145004
363.00000000	0.00000099
364.00000000	0.00000000
365.00000000	0.00110500
366.00000000	0.00000000
367.00000000	0.00312361
368.00000000	0.00008980
369.00000000	0.00164125
370.00000000	0.00101349
371.00000000	0.00003178
372.00000000	0.00118922
373.00000000	0.00263944
374.00000000	0.00013635
375.00000000	0.00311510
376.00000000	0.00148563
377.00000000	0.00205247
378.00000000	0.00123967
379.00000000	0.00022152
380.00000000	0.00259730
381.00000000	0.00000000
382.00000000	0.00109963
383.00000000	0.00024028
384.00000000	0.00373818
385.00000000	0.00368815
386.00000000	0.00011509
387.00000000	0.00090898
388.00000000	0.00092639
389.00000000	0.00093274
390.00000000	0.00032102
391.00000000	0.00252559
392.00000000	0.00000000
393.00000000	0.00013999
394.00000000	0.00227384
395.00000000	0.00240616
396.00000000	0.00053356
397.00000000	0.00222111
398.00000000	0.00329101
399.00000000	0.00443683
400.00000000	0.00481300
401.00000000	0.00506659
402.00000000	0.00296502
403.00000000	0.00407556
404.00000000	0.00675766
405.00000000	0.00853671
406.00000000	0.00769767
407.00000000	0.01086810
408.00000000	0.01142619
409.00000000	0.01702992
410.00000000	0.01749853
411.00000000	0.02164145
412.00000000	0.02717153
413.00000000	0.03062210
414.00000000	0.03737901
415.00000000	0.04751069
416.00000000	0.05777933
417.00000000	0.06694681
418.00000000	0.08023520
419.00000000	0.09645482
420.00000000	0.11220235
421.00000000	0.12261758
422.00000000	0.15154442
423.00000000	0.17866441
424.00000000	0.21074556
425.00000000	0.23482661
426.00000000	0.27038707
427.00000000	0.30816454
428.00000000	0.34830501
429.00000000	0.38945978
430.00000000	0.43702590
431.00000000	0.48054471
432.00000000	0.52759226
433.00000000	0.56895253
434.00000000	0.61492738
435.00000000	0.67360557
436.00000000	0.72147917
437.00000000	0.75650194
438.00000000	0.81101326
439.00000000	0.85765786
440.00000000	0.89016063
441.00000000	0.93834813
442.00000000	0.96639817
443.00000000	0.99769033
444.00000000	0.99452196
445.00000000	1.00000000
446.00000000	0.97739488
447.00000000	0.94168035
448.00000000	0.89967526
449.00000000	0.86218252
450.00000000	0.77578751
451.00000000	0.69539513
452.00000000	0.61645661
453.00000000	0.54717617
454.00000000	0.47782858
455.00000000	0.42868718
456.00000000	0.38406772
457.00000000	0.34077025
458.00000000	0.31075001
459.00000000	0.28786495
460.00000000	0.26415906
461.00000000	0.24761381
462.00000000	0.22101191
463.00000000	0.20750314
464.00000000	0.18832220
465.00000000	0.18039425
466.00000000	0.16096898
467.00000000	0.15340272
468.00000000	0.13943534
469.00000000	0.12971387
470.00000000	0.11876975
471.00000000	0.11307348
472.00000000	0.11201717
473.00000000	0.10151390
474.00000000	0.10358893
475.00000000	0.09937234
476.00000000	0.09877552
477.00000000	0.09817015
478.00000000	0.09243290
479.00000000	0.09482021
480.00000000	0.09436484
481.00000000	0.09830562
482.00000000	0.10114210
483.00000000	0.10191077
484.00000000	0.10399259
485.00000000	0.10860194
486.00000000	0.11280909
487.00000000	0.11656048
488.00000000	0.12506023
489.00000000	0.12976757
490.00000000	0.13708477
491.00000000	0.14855578
492.00000000	0.15642331
493.00000000	0.16528772
494.00000000	0.17646766
495.00000000	0.18995411
496.00000000	0.20464034
497.00000000	0.21640928
498.00000000	0.23631759
499.00000000	0.24890590
500.00000000	0.26247553
501.00000000	0.27968765
502.00000000	0.29575241
503.00000000	0.31473161
504.00000000	0.32755761
505.00000000	0.34233305
506.00000000	0.35926791
507.00000000	0.37859946
508.00000000	0.39904646
509.00000000	0.41646331
510.00000000	0.43152793
511.00000000	0.44976036
512.00000000	0.46836087
513.00000000	0.47995945
514.00000000	0.50220273
515.00000000	0.51839289
516.00000000	0.52932970
517.00000000	0.53889904
518.00000000	0.55426915
519.00000000	0.56481471
520.00000000	0.57440050
521.00000000	0.57595071
522.00000000	0.59613904
523.00000000	0.60889069
524.00000000	0.62149222
525.00000000	0.62303170
526.00000000	0.63868249
527.00000000	0.64815392
528.00000000	0.65947202
529.00000000	0.66843596
530.00000000	0.67126987
531.00000000	0.67553386
532.00000000	0.68614000
533.00000000	0.68787326
534.00000000	0.68607050
535.00000000	0.70052320
536.00000000	0.70257160
537.00000000	0.70854828
538.00000000	0.72014414
539.00000000	0.72381051
540.00000000	0.72849331
541.00000000	0.73817291
542.00000000	0.73601438
543.00000000	0.75429378
544.00000000	0.74304377
545.00000000	0.75145554
546.00000000	0.75944204
547.00000000	0.76030272
548.00000000	0.76518620
549.00000000	0.76518195
550.00000000	0.77445004
551.00000000	0.77898622
552.00000000	0.79042727
553.00000000	0.79385221
554.00000000	0.79903608
555.00000000	0.81187559
556.00000000	0.82012234
557.00000000	0.82191391
558.00000000	0.82822145
559.00000000	0.83579482
560.00000000	0.84532860
561.00000000	0.85616933
562.00000000	0.85702851
563.00000000	0.85361988
564.00000000	0.86117256
565.00000000	0.86818458
566.00000000	0.87403485
567.00000000	0.87935730
568.00000000	0.87909918
569.00000000	0.88644382
570.00000000	0.88759025
571.00000000	0.89124699
572.00000000	0.89571783
573.00000000	0.90209781
574.00000000	0.89691041
575.00000000	0.89171549
576.00000000	0.90273154
577.00000000	0.91079164
578.00000000	0.91211110
579.00000000	0.91040403
580.00000000	0.91520577
581.00000000	0.91594911
582.00000000	0.91954042
583.00000000	0.92514575
584.00000000	0.92382463
585.00000000	0.93038726
586.00000000	0.92622655
587.00000000	0.93743705
588.00000000	0.92267715
589.00000000	0.91599970
590.00000000	0.92491694
591.00000000	0.91620245
592.00000000	0.90831665
593.00000000	0.91543910
594.00000000	0.89819818
595.00000000	0.89690380
596.00000000	0.89587868
597.00000000	0.89029609
598.00000000	0.89537850
599.00000000	0.88244516
600.00000000	0.88322484
601.00000000	0.87127077
602.00000000	0.86857660
603.00000000	0.86703741
604.00000000	0.85027853
605.00000000	0.83803471
606.00000000	0.82969521
607.00000000	0.81938735
608.00000000	0.80898463
609.00000000	0.80149613
610.00000000	0.79557813
611.00000000	0.78961061
612.00000000	0.77458072
613.00000000	0.75965520
614.00000000	0.75500766
615.00000000	0.74825395
616.00000000	0.74525316
617.00000000	0.73536437
618.00000000	0.72970721
619.00000000	0.70250268
620.00000000	0.71039093
621.00000000	0.68243293
622.00000000	0.67508779
623.00000000	0.66093281
624.00000000	0.64255168
625.00000000	0.63590069
626.00000000	0.62316658
627.00000000	0.61172772
628.00000000	0.59960235
629.00000000	0.58991694
630.00000000	0.57886527
631.00000000	0.55825491
632.00000000	0.54568141
633.00000000	0.54336518
634.00000000	0.53090122
635.00000000	0.51602643
636.00000000	0.51273162
637.00000000	0.50667565
638.00000000	0.49016555
639.00000000	0.47368187
640.00000000	0.46874770
641.00000000	0.45313872
642.00000000	0.44282870
643.00000000	0.43590887
644.00000000	0.42622934
645.00000000	0.41462605
646.00000000	0.40592403
647.00000000	0.39743227
648.00000000	0.38800086
649.00000000	0.38286459
650.00000000	0.36807962
651.00000000	0.35741524
652.00000000	0.35342654
653.00000000	0.34079348
654.00000000	0.33435662
655.00000000	0.32806515
656.00000000	0.31166224
657.00000000	0.29941680
658.00000000	0.29851300
659.00000000	0.28993765
660.00000000	0.28162821
661.00000000	0.27772671
662.00000000	0.26335525
663.00000000	0.26261357
664.00000000	0.25639239
665.00000000	0.25182802
666.00000000	0.24049038
667.00000000	0.23280718
668.00000000	0.22885417
669.00000000	0.22134776
670.00000000	0.22509476
671.00000000	0.20633287
672.00000000	0.20958951
673.00000000	0.19630496
674.00000000	0.18938939
675.00000000	0.18705401
676.00000000	0.18185030
677.00000000	0.17800546
678.00000000	0.17538245
679.00000000	0.16734864
680.00000000	0.16203418
681.00000000	0.15781181
682.00000000	0.15768643
683.00000000	0.14950673
684.00000000	0.13691180
685.00000000	0.14086241
686.00000000	0.13694623
687.00000000	0.13491249
688.00000000	0.12860543
689.00000000	0.12585864
690.00000000	0.12004435
691.00000000	0.11838176
692.00000000	0.11580669
693.00000000	0.10786402
694.00000000	0.10782040
695.00000000	0.10704310
696.00000000	0.10290534
697.00000000	0.10318026
698.00000000	0.09541679
699.00000000	0.09523026
700.00000000	0.08653024
701.00000000	0.08935806
702.00000000	0.08827978
703.00000000	0.08398409
704.00000000	0.07963480
705.00000000	0.07465420
706.00000000	0.08195290
707.00000000	0.07673851
708.00000000	0.07350092
709.00000000	0.06941484
710.00000000	0.07425935
711.00000000	0.06613457
712.00000000	0.06149265
713.00000000	0.06369046
714.00000000	0.06076981
715.00000000	0.06152827
716.00000000	0.05684753
717.00000000	0.05634491
718.00000000	0.05627679
719.00000000	0.05418498
720.00000000	0.04810828
721.00000000	0.05103691
722.00000000	0.04874165
723.00000000	0.04255488
724.00000000	0.04526526
725.00000000	0.04571022
726.00000000	0.04470475
727.00000000	0.04413983
728.00000000	0.04293956
729.00000000	0.04309978
730.00000000	0.03496458
731.00000000	0.03912094
732.00000000	0.04391263
733.00000000	0.03151070
734.00000000	0.03192146
735.00000000	0.03152973
736.00000000	0.02653103
737.00000000	0.02978363
738.00000000	0.02867907
739.00000000	0.02873215
740.00000000	0.03000945
741.00000000	0.02896064
742.00000000	0.02632225
743.00000000	0.02511673
744.00000000	0.02648141
745.00000000	0.01943965
746.00000000	0.02397060
747.00000000	0.02611919
748.00000000	0.02215430
749.00000000	0.02418431
750.00000000	0.02150918
751.00000000	0.02051751
752.00000000	0.01691155
753.00000000	0.02279689
754.00000000	0.01680273
755.00000000	0.01788678
756.00000000	0.01859471
757.00000000	0.01531281
758.00000000	0.01460899
759.00000000	0.01504231
760.00000000	0.01536509
761.00000000	0.01821119
762.00000000	0.01381303
763.00000000	0.01674499
764.00000000	0.01700592
765.00000000	0.01096612
766.00000000	0.01273404
767.00000000	0.01741261
768.00000000	0.01818221
769.00000000	0.00981553
770.00000000	0.01532191
771.00000000	0.01130238
772.00000000	0.00739997
773.00000000	0.01016999
774.00000000	0.01330849
775.00000000	0.01299910
776.00000000	0.00814416
777.00000000	0.00873101
778.00000000	0.01318286
779.00000000	0.00706132
780.00000000	0.00510391
781.00000000	0.00071934
782.00000000	0.00905342
783.00000000	0.00770498
784.00000000	0.00592402
785.00000000	0.01015609
786.00000000	0.01812637
787.00000000	0.00656728
788.00000000	0.00355975
789.00000000	0.00286192
790.00000000	0.00913373
791.00000000	0.00183484
792.00000000	0.00903096
793.00000000	0.00584079
794.00000000	0.01036689
795.00000000	0.00285244
796.00000000	0.00659113
797.00000000	0.00000503
798.00000000	0.00129240
799.00000000	0.00416217
800.00000000	0.00845084
801.00000000	0.00000000
802.00000000	0.00000000
803.00000000	0.01128942
804.00000000	0.00629100
805.00000000	0.00878651
806.00000000	0.00501368
807.00000000	0.00002150
808.00000000	0.00427062
809.00000000	0.01036869
810.00000000	0.00342821
811.00000000	0.00264414
812.00000000	0.00166075
813.00000000	0.00503213
814.00000000	0.00000000
815.00000000	0.00130843
816.00000000	0.00693301
817.00000000	0.00000000
818.00000000	0.01067716
819.00000000	0.00105416
820.00000000	0.00613266
821.00000000	0.00511538
822.00000000	0.00142982
823.00000000	0.00000000
824.00000000	0.00000244
825.00000000	0.00246100
826.00000000	0.00636752
827.00000000	0.00332849
828.00000000	0.00452569
829.00000000	0.00041747
830.00000000	0.00579277
831.00000000	0.00258589
832.00000000	0.00343162
833.00000000	0.00000212
834.00000000	0.00626755
835.00000000	0.01325569
836.00000000	0.00000000
837.00000000	0.00136408
838.00000000	0.00381831
839.00000000	0.00787042
840.00000000	0.00000000
841.00000000	0.00426433
842.00000000	0.00394219
843.00000000	0.01224832
844.00000000	0.00572342
845.00000000	0.00136367
846.00000000	0.00067698
847.00000000	0.00948726
848.00000000	0.00275601
849.00000000	0.00149835
850.00000000	0.00000000
851.00000000	0.00015467
852.00000000	0.00000000
853.00000000	0.00880531
854.00000000	0.00764423
855.00000000	0.01933926
856.00000000	0.00001162
857.00000000	0.00453018
858.00000000	0.00000000
859.00000000	0.00537364
860.00000000	0.00000000
861.00000000	0.00190371
862.00000000	0.00000000
863.00000000	0.00991322
864.00000000	0.00010892
865.00000000	0.00017263
866.00000000	0.00100779
867.00000000	0.00000000
868.00000000	0.00323831
869.00000000	0.00041489
870.00000000	0.00000000
871.00000000	0.00039906
872.00000000	0.00000000
873.00000000	0.00198947
874.00000000	0.00979198
875.00000000	0.00129686
876.00000000	0.00243916
877.00000000	0.00020518
878.00000000	0.00207482
879.00000000	0.00407068
880.00000000	0.00000000
881.00000000	0.00000000
882.00000000	0.00173605
883.00000000	0.00731133
884.00000000	0.00001654
885.00000000	0.00000000
886.00000000	0.00000000
887.00000000	0.01144411
888.00000000	0.00275901
889.00000000	0.00163726
890.00000000	0.00194595
891.00000000	0.00026136
892.00000000	0.00089074
893.00000000	0.00000000
894.00000000	0.00000000
895.00000000	0.00192638
896.00000000	0.00390416
897.00000000	0.00032736
898.00000000	0.00577597
899.00000000	0.00044995
900.00000000	0.00000000
