#LICA Lamps Spectra Database
#Website 1: https://guaix.fis.ucm.es/lamps_spectra
#Website 2: http://carlostapia.es/lamparas/lamps.html
#Latest update: 2017/12/15
#Tester: Carlos Eugenio Tapia Ayuga
#Correct for Electrical Dark: Yes (JAZA2310)
#Correct for Detector Non-linearity: Yes (JAZA2310)
#Correct for Flux: Yes
#Start wavelength (nm): 300
#End wavelength (nm): 900
#Steps (nm):	1
#Locus: D65 sRGB Gamma 1 CIE1931
#XYZ coordinates: 0.3501	0.3331	0.6619
#xyY coordinates: 0.2603	0.2477	0.3331
#sRGB: 75	80	166
#CCT Lindbloom (K):	23223
#CCT McCamy (K):	18870
#CCT Hernández-Andrés (K):	23110
#Melatonin: 1.291
#Chlorophyll a: 0.095
#Chlorophyll b: 1.717
#Beta Carotene: 0.095
#Manufacturer: Unknown
#Luminance manufacturer: Unknown
#Other data:
#Begin Processed Spectral Data
W	S
300.00000000	0.00000000
301.00000000	0.00000000
302.00000000	0.00000000
303.00000000	0.00203827
304.00000000	0.00000000
305.00000000	0.00000000
306.00000000	0.00000000
307.00000000	0.00000000
308.00000000	0.00843339
309.00000000	0.00000000
310.00000000	0.00000000
311.00000000	0.00000000
312.00000000	0.00376285
313.00000000	0.00578972
314.00000000	0.00000000
315.00000000	0.00000000
316.00000000	0.00000000
317.00000000	0.00000000
318.00000000	0.00117001
319.00000000	0.00122012
320.00000000	0.00000000
321.00000000	0.00000000
322.00000000	0.00112295
323.00000000	0.00000000
324.00000000	0.00000000
325.00000000	0.00000000
326.00000000	0.00000000
327.00000000	0.00000000
328.00000000	0.00252820
329.00000000	0.00450622
330.00000000	0.00000000
331.00000000	0.00049558
332.00000000	0.00316174
333.00000000	0.00489793
334.00000000	0.00000000
335.00000000	0.00000000
336.00000000	0.00013545
337.00000000	0.00323234
338.00000000	0.00000000
339.00000000	0.00113497
340.00000000	0.00000000
341.00000000	0.00000000
342.00000000	0.00000000
343.00000000	0.00000000
344.00000000	0.00000000
345.00000000	0.00236231
346.00000000	0.00000000
347.00000000	0.00009340
348.00000000	0.00125348
349.00000000	0.00000000
350.00000000	0.00000000
351.00000000	0.00000000
352.00000000	0.00000000
353.00000000	0.00113048
354.00000000	0.00000000
355.00000000	0.00000000
356.00000000	0.00000000
357.00000000	0.00094953
358.00000000	0.00000000
359.00000000	0.00225259
360.00000000	0.00169279
361.00000000	0.00004539
362.00000000	0.00017332
363.00000000	0.00000000
364.00000000	0.00045322
365.00000000	0.00124689
366.00000000	0.00058145
367.00000000	0.00000000
368.00000000	0.00107232
369.00000000	0.00153129
370.00000000	0.00000000
371.00000000	0.00117284
372.00000000	0.00000000
373.00000000	0.00138486
374.00000000	0.00078102
375.00000000	0.00000000
376.00000000	0.00000000
377.00000000	0.00000000
378.00000000	0.00039161
379.00000000	0.00029789
380.00000000	0.00123445
381.00000000	0.00000000
382.00000000	0.00034464
383.00000000	0.00000000
384.00000000	0.00358734
385.00000000	0.00023858
386.00000000	0.00171433
387.00000000	0.00169488
388.00000000	0.00120882
389.00000000	0.00086156
390.00000000	0.00149343
391.00000000	0.00236932
392.00000000	0.00285182
393.00000000	0.00325284
394.00000000	0.00204653
395.00000000	0.00436407
396.00000000	0.00324207
397.00000000	0.00665567
398.00000000	0.00460966
399.00000000	0.00565144
400.00000000	0.01130958
401.00000000	0.00975507
402.00000000	0.01106525
403.00000000	0.01485770
404.00000000	0.01705464
405.00000000	0.02135983
406.00000000	0.02308378
407.00000000	0.02558008
408.00000000	0.03061315
409.00000000	0.03895481
410.00000000	0.04452195
411.00000000	0.05037955
412.00000000	0.05677667
413.00000000	0.06621962
414.00000000	0.07738183
415.00000000	0.08531703
416.00000000	0.09538160
417.00000000	0.11085422
418.00000000	0.12860851
419.00000000	0.14404306
420.00000000	0.16548562
421.00000000	0.17821719
422.00000000	0.20380229
423.00000000	0.22808997
424.00000000	0.24544627
425.00000000	0.27101714
426.00000000	0.30435890
427.00000000	0.32953962
428.00000000	0.35742291
429.00000000	0.39230129
430.00000000	0.41713225
431.00000000	0.44874607
432.00000000	0.48122993
433.00000000	0.51871537
434.00000000	0.55191362
435.00000000	0.58454087
436.00000000	0.62310753
437.00000000	0.64816012
438.00000000	0.68938122
439.00000000	0.72298227
440.00000000	0.76161367
441.00000000	0.78068744
442.00000000	0.80382875
443.00000000	0.83817107
444.00000000	0.85522027
445.00000000	0.89193526
446.00000000	0.91670022
447.00000000	0.92700808
448.00000000	0.94678254
449.00000000	0.96988327
450.00000000	0.97536118
451.00000000	0.98937720
452.00000000	0.99121621
453.00000000	1.00000000
454.00000000	0.99531356
455.00000000	0.99844831
456.00000000	0.98887053
457.00000000	0.97583856
458.00000000	0.96629090
459.00000000	0.94254356
460.00000000	0.92920366
461.00000000	0.89806199
462.00000000	0.87817770
463.00000000	0.82718636
464.00000000	0.81417165
465.00000000	0.78155276
466.00000000	0.73145060
467.00000000	0.70226896
468.00000000	0.67239583
469.00000000	0.62897946
470.00000000	0.59624667
471.00000000	0.57223198
472.00000000	0.54139719
473.00000000	0.51222339
474.00000000	0.47763056
475.00000000	0.45615536
476.00000000	0.43164060
477.00000000	0.41546708
478.00000000	0.39260337
479.00000000	0.36939794
480.00000000	0.35369792
481.00000000	0.33654465
482.00000000	0.31836738
483.00000000	0.30704022
484.00000000	0.29654827
485.00000000	0.28610025
486.00000000	0.27395860
487.00000000	0.26451366
488.00000000	0.25328827
489.00000000	0.24716123
490.00000000	0.23973228
491.00000000	0.23737949
492.00000000	0.22997543
493.00000000	0.23333799
494.00000000	0.22703941
495.00000000	0.22287762
496.00000000	0.22397306
497.00000000	0.22431321
498.00000000	0.22478379
499.00000000	0.22732579
500.00000000	0.22677059
501.00000000	0.23064516
502.00000000	0.23522522
503.00000000	0.23586085
504.00000000	0.23739570
505.00000000	0.24260135
506.00000000	0.24500539
507.00000000	0.25098715
508.00000000	0.25608110
509.00000000	0.25964627
510.00000000	0.26544446
511.00000000	0.27345685
512.00000000	0.27832382
513.00000000	0.27671670
514.00000000	0.28635724
515.00000000	0.28978999
516.00000000	0.29480653
517.00000000	0.29876205
518.00000000	0.30179953
519.00000000	0.30568099
520.00000000	0.30834768
521.00000000	0.31085129
522.00000000	0.31609021
523.00000000	0.31847909
524.00000000	0.32399403
525.00000000	0.32740052
526.00000000	0.33297980
527.00000000	0.33506064
528.00000000	0.34039934
529.00000000	0.34147156
530.00000000	0.34418646
531.00000000	0.34604702
532.00000000	0.34522447
533.00000000	0.34678725
534.00000000	0.34693755
535.00000000	0.34793979
536.00000000	0.35281565
537.00000000	0.35669440
538.00000000	0.35485340
539.00000000	0.35701834
540.00000000	0.35617759
541.00000000	0.35952436
542.00000000	0.35765606
543.00000000	0.35992507
544.00000000	0.35825487
545.00000000	0.35979966
546.00000000	0.35708831
547.00000000	0.36090566
548.00000000	0.36173333
549.00000000	0.35898234
550.00000000	0.35913610
551.00000000	0.36040443
552.00000000	0.35826397
553.00000000	0.35527356
554.00000000	0.36069531
555.00000000	0.35725441
556.00000000	0.36009880
557.00000000	0.36395433
558.00000000	0.36127028
559.00000000	0.36063873
560.00000000	0.36339547
561.00000000	0.35981545
562.00000000	0.35552909
563.00000000	0.35556434
564.00000000	0.34792212
565.00000000	0.35386570
566.00000000	0.34990286
567.00000000	0.35186979
568.00000000	0.34495566
569.00000000	0.34610203
570.00000000	0.33883228
571.00000000	0.33866764
572.00000000	0.33811809
573.00000000	0.33609802
574.00000000	0.33344326
575.00000000	0.33163730
576.00000000	0.32615049
577.00000000	0.32778795
578.00000000	0.32326092
579.00000000	0.32070312
580.00000000	0.31949189
581.00000000	0.31424157
582.00000000	0.31501475
583.00000000	0.31336506
584.00000000	0.31167248
585.00000000	0.31398939
586.00000000	0.30500133
587.00000000	0.30181072
588.00000000	0.30131953
589.00000000	0.29555659
590.00000000	0.29478593
591.00000000	0.29162115
592.00000000	0.28691254
593.00000000	0.28604753
594.00000000	0.28092346
595.00000000	0.28070611
596.00000000	0.27719575
597.00000000	0.27295636
598.00000000	0.26945081
599.00000000	0.26925417
600.00000000	0.26943460
601.00000000	0.26204853
602.00000000	0.25988255
603.00000000	0.25524496
604.00000000	0.25715625
605.00000000	0.24958933
606.00000000	0.24685194
607.00000000	0.23977474
608.00000000	0.24016499
609.00000000	0.23688861
610.00000000	0.23218753
611.00000000	0.23088949
612.00000000	0.22333680
613.00000000	0.22363469
614.00000000	0.22227096
615.00000000	0.22063068
616.00000000	0.21647193
617.00000000	0.21570169
618.00000000	0.21268168
619.00000000	0.21029123
620.00000000	0.20672230
621.00000000	0.20301217
622.00000000	0.20092390
623.00000000	0.19805974
624.00000000	0.19249720
625.00000000	0.19067503
626.00000000	0.18643459
627.00000000	0.18224927
628.00000000	0.18157389
629.00000000	0.17966606
630.00000000	0.17657325
631.00000000	0.17076114
632.00000000	0.16992521
633.00000000	0.16482394
634.00000000	0.16217975
635.00000000	0.16068527
636.00000000	0.15458093
637.00000000	0.15367648
638.00000000	0.14918271
639.00000000	0.14664604
640.00000000	0.14475808
641.00000000	0.14278727
642.00000000	0.13811213
643.00000000	0.13404522
644.00000000	0.13618955
645.00000000	0.13277489
646.00000000	0.12748567
647.00000000	0.12544970
648.00000000	0.12367627
649.00000000	0.12122495
650.00000000	0.11785266
651.00000000	0.11944838
652.00000000	0.11182142
653.00000000	0.11015834
654.00000000	0.11028208
655.00000000	0.10835489
656.00000000	0.10586393
657.00000000	0.10252480
658.00000000	0.10004838
659.00000000	0.09925041
660.00000000	0.09591776
661.00000000	0.09440080
662.00000000	0.09277506
663.00000000	0.09044769
664.00000000	0.08923458
665.00000000	0.08746502
666.00000000	0.08536839
667.00000000	0.08260254
668.00000000	0.08191911
669.00000000	0.08005186
670.00000000	0.07899585
671.00000000	0.07528164
672.00000000	0.07312758
673.00000000	0.06885765
674.00000000	0.06886486
675.00000000	0.06822254
676.00000000	0.07004356
677.00000000	0.06657232
678.00000000	0.06350911
679.00000000	0.06481353
680.00000000	0.06411316
681.00000000	0.06129094
682.00000000	0.05598644
683.00000000	0.05848169
684.00000000	0.05746794
685.00000000	0.05401783
686.00000000	0.05397066
687.00000000	0.05062075
688.00000000	0.05274730
689.00000000	0.04829976
690.00000000	0.04873844
691.00000000	0.04667684
692.00000000	0.04793692
693.00000000	0.04511878
694.00000000	0.04519513
695.00000000	0.04145121
696.00000000	0.04238306
697.00000000	0.04076841
698.00000000	0.03881946
699.00000000	0.04103126
700.00000000	0.04024814
701.00000000	0.03685086
702.00000000	0.03499532
703.00000000	0.03328862
704.00000000	0.03364906
705.00000000	0.03424337
706.00000000	0.03392718
707.00000000	0.03568011
708.00000000	0.03231985
709.00000000	0.02816162
710.00000000	0.02929492
711.00000000	0.02912704
712.00000000	0.02906010
713.00000000	0.02406071
714.00000000	0.02940851
715.00000000	0.02456560
716.00000000	0.02402986
717.00000000	0.02446414
718.00000000	0.02309968
719.00000000	0.02177162
720.00000000	0.02329088
721.00000000	0.02248716
722.00000000	0.02355645
723.00000000	0.02297030
724.00000000	0.02029242
725.00000000	0.01739353
726.00000000	0.01873237
727.00000000	0.01916247
728.00000000	0.01793346
729.00000000	0.01870810
730.00000000	0.02067964
731.00000000	0.01824526
732.00000000	0.01685382
733.00000000	0.01501459
734.00000000	0.01665079
735.00000000	0.01529753
736.00000000	0.01698561
737.00000000	0.01606213
738.00000000	0.00961690
739.00000000	0.01249759
740.00000000	0.01322506
741.00000000	0.01149535
742.00000000	0.01219426
743.00000000	0.01656304
744.00000000	0.01284286
745.00000000	0.01110698
746.00000000	0.01221643
747.00000000	0.01121377
748.00000000	0.00938417
749.00000000	0.01224959
750.00000000	0.00842335
751.00000000	0.00983111
752.00000000	0.00895449
753.00000000	0.00699624
754.00000000	0.00868955
755.00000000	0.00705942
756.00000000	0.00790027
757.00000000	0.00875273
758.00000000	0.00896736
759.00000000	0.00893138
760.00000000	0.00724821
761.00000000	0.00881486
762.00000000	0.01033014
763.00000000	0.00854353
764.00000000	0.00679531
765.00000000	0.00380375
766.00000000	0.00443488
767.00000000	0.00815736
768.00000000	0.00488998
769.00000000	0.00587612
770.00000000	0.00628823
771.00000000	0.00338756
772.00000000	0.00602977
773.00000000	0.00525879
774.00000000	0.00356956
775.00000000	0.00595498
776.00000000	0.00020919
777.00000000	0.00599306
778.00000000	0.00554904
779.00000000	0.00437641
780.00000000	0.00276532
781.00000000	0.00459052
782.00000000	0.00202457
783.00000000	0.00295736
784.00000000	0.00324113
785.00000000	0.00047278
786.00000000	0.00308643
787.00000000	0.00675535
788.00000000	0.00517584
789.00000000	0.00375156
790.00000000	0.00000000
791.00000000	0.00396315
792.00000000	0.00213387
793.00000000	0.00164300
794.00000000	0.00566713
795.00000000	0.00000000
796.00000000	0.00000000
797.00000000	0.00337208
798.00000000	0.00000000
799.00000000	0.00000000
800.00000000	0.00292462
801.00000000	0.00000000
802.00000000	0.00263007
803.00000000	0.00164656
804.00000000	0.00098132
805.00000000	0.00000000
806.00000000	0.00371809
807.00000000	0.00000000
808.00000000	0.00000000
809.00000000	0.00053543
810.00000000	0.00221566
811.00000000	0.00119240
812.00000000	0.00109858
813.00000000	0.00328380
814.00000000	0.00533661
815.00000000	0.00000000
816.00000000	0.00257882
817.00000000	0.00199266
818.00000000	0.00057172
819.00000000	0.00000000
820.00000000	0.00349310
821.00000000	0.00277442
822.00000000	0.00422967
823.00000000	0.00087338
824.00000000	0.00000000
825.00000000	0.00229191
826.00000000	0.00351433
827.00000000	0.00000000
828.00000000	0.00000000
829.00000000	0.00499081
830.00000000	0.00000000
831.00000000	0.00000000
832.00000000	0.00236461
833.00000000	0.00000000
834.00000000	0.00304564
835.00000000	0.00215479
836.00000000	0.00121415
837.00000000	0.00000000
838.00000000	0.00000000
839.00000000	0.00112723
840.00000000	0.00000000
841.00000000	0.00387320
842.00000000	0.00000000
843.00000000	0.00000000
844.00000000	0.00000000
845.00000000	0.00401357
846.00000000	0.00000000
847.00000000	0.00000000
848.00000000	0.00366683
849.00000000	0.00000000
850.00000000	0.00000000
851.00000000	0.00226723
852.00000000	0.00000000
853.00000000	0.00000000
854.00000000	0.00173337
855.00000000	0.00000000
856.00000000	0.00000000
857.00000000	0.00516152
858.00000000	0.00000000
859.00000000	0.00095904
860.00000000	0.00277839
861.00000000	0.00400447
862.00000000	0.00716631
863.00000000	0.00000000
864.00000000	0.00000000
865.00000000	0.00000000
866.00000000	0.00000000
867.00000000	0.00000000
868.00000000	0.00000000
869.00000000	0.00000000
870.00000000	0.00000000
871.00000000	0.00000000
872.00000000	0.00094409
873.00000000	0.00000000
874.00000000	0.00000000
875.00000000	0.00000000
876.00000000	0.00000000
877.00000000	0.00000000
878.00000000	0.00000000
879.00000000	0.00000000
880.00000000	0.00393397
881.00000000	0.00000000
882.00000000	0.00000000
883.00000000	0.00000000
884.00000000	0.00000000
885.00000000	0.00000000
886.00000000	0.00000000
887.00000000	0.00000000
888.00000000	0.00000000
889.00000000	0.00000000
890.00000000	0.00000000
891.00000000	0.00000000
892.00000000	0.00000000
893.00000000	0.00000000
894.00000000	0.00000000
895.00000000	0.00000000
896.00000000	0.00000000
897.00000000	0.00000000
898.00000000	0.00000000
899.00000000	0.00000000
900.00000000	0.00000000
