#LICA Lamps Spectra Database
#Website 1: https://guaix.fis.ucm.es/lamps_spectra
#Website 2: http://carlostapia.es/lamparas/lamps.html
#Latest update: 2018/01/15
#Tester: Carlos Eugenio Tapia Ayuga
#Correct for Electrical Dark: Yes (JAZA2310)
#Correct for Detector Non-linearity: Yes (JAZA2310)
#Correct for Flux: Yes
#Start wavelength (nm): 300
#End wavelength (nm): 900
#Steps (nm):	1
#Locus: D65 sRGB Gamma 1 CIE1931
#XYZ coordinates: 0.0204	0.1596	0.0946
#xyY coordinates: 0.0744	0.5811	0.1596
#sRGB: 0	72	17
#CCT Lindbloom (K):	11869
#CCT McCamy (K):	11589
#CCT Hernández-Andrés (K):	12332
#Melatonin: 1.006
#Chlorophyll a: 0.000
#Chlorophyll b: 0.156
#Beta Carotene: 0.000
#Manufacturer: Unknown
#Luminance manufacturer: Unknown
#Other data: Traffic light in Spain
#Begin Processed Spectral Data
W	S
300.00000000	0.00014485
301.00000000	0.00056299
302.00000000	0.00008908
303.00000000	0.00000204
304.00000000	0.00003366
305.00000000	0.00000000
306.00000000	0.00022618
307.00000000	0.00004063
308.00000000	0.00000023
309.00000000	0.00121993
310.00000000	0.00071678
311.00000000	0.00046469
312.00000000	0.00084656
313.00000000	0.00073236
314.00000000	0.00015284
315.00000000	0.00000000
316.00000000	0.00000000
317.00000000	0.00060026
318.00000000	0.00000000
319.00000000	0.00060400
320.00000000	0.00062054
321.00000000	0.00110261
322.00000000	0.00000044
323.00000000	0.00000000
324.00000000	0.00000000
325.00000000	0.00016999
326.00000000	0.00017066
327.00000000	0.00085924
328.00000000	0.00000000
329.00000000	0.00000000
330.00000000	0.00000000
331.00000000	0.00046669
332.00000000	0.00022228
333.00000000	0.00000000
334.00000000	0.00000000
335.00000000	0.00018820
336.00000000	0.00000000
337.00000000	0.00000000
338.00000000	0.00038481
339.00000000	0.00060142
340.00000000	0.00057507
341.00000000	0.00000011
342.00000000	0.00116097
343.00000000	0.00000000
344.00000000	0.00013142
345.00000000	0.00004455
346.00000000	0.00024729
347.00000000	0.00040480
348.00000000	0.00135346
349.00000000	0.00000000
350.00000000	0.00000053
351.00000000	0.00000000
352.00000000	0.00013910
353.00000000	0.00047331
354.00000000	0.00140057
355.00000000	0.00173394
356.00000000	0.00020310
357.00000000	0.00008711
358.00000000	0.00020056
359.00000000	0.00001041
360.00000000	0.00034734
361.00000000	0.00000000
362.00000000	0.00014892
363.00000000	0.00034464
364.00000000	0.00146949
365.00000000	0.00055702
366.00000000	0.00097242
367.00000000	0.00000000
368.00000000	0.00214006
369.00000000	0.00020113
370.00000000	0.00000000
371.00000000	0.00186663
372.00000000	0.00047639
373.00000000	0.00050671
374.00000000	0.00000000
375.00000000	0.00096647
376.00000000	0.00000000
377.00000000	0.00035031
378.00000000	0.00000000
379.00000000	0.00016009
380.00000000	0.00000005
381.00000000	0.00048315
382.00000000	0.00023267
383.00000000	0.00000000
384.00000000	0.00000570
385.00000000	0.00010062
386.00000000	0.00032923
387.00000000	0.00007268
388.00000000	0.00055143
389.00000000	0.00000000
390.00000000	0.00058587
391.00000000	0.00038920
392.00000000	0.00000000
393.00000000	0.00099007
394.00000000	0.00018927
395.00000000	0.00000000
396.00000000	0.00001153
397.00000000	0.00001006
398.00000000	0.00145591
399.00000000	0.00014762
400.00000000	0.00085946
401.00000000	0.00000000
402.00000000	0.00099420
403.00000000	0.00018055
404.00000000	0.00178712
405.00000000	0.00000000
406.00000000	0.00022788
407.00000000	0.00008754
408.00000000	0.00000000
409.00000000	0.00000000
410.00000000	0.00021709
411.00000000	0.00134294
412.00000000	0.00000570
413.00000000	0.00032899
414.00000000	0.00000000
415.00000000	0.00000000
416.00000000	0.00000661
417.00000000	0.00038597
418.00000000	0.00018890
419.00000000	0.00007079
420.00000000	0.00064610
421.00000000	0.00009194
422.00000000	0.00038535
423.00000000	0.00003356
424.00000000	0.00039184
425.00000000	0.00000868
426.00000000	0.00027834
427.00000000	0.00089949
428.00000000	0.00000000
429.00000000	0.00010202
430.00000000	0.00055953
431.00000000	0.00070936
432.00000000	0.00065455
433.00000000	0.00070511
434.00000000	0.00000000
435.00000000	0.00005016
436.00000000	0.00001851
437.00000000	0.00065538
438.00000000	0.00066168
439.00000000	0.00000019
440.00000000	0.00175099
441.00000000	0.00101858
442.00000000	0.00035412
443.00000000	0.00000000
444.00000000	0.00102830
445.00000000	0.00189743
446.00000000	0.00167383
447.00000000	0.00147422
448.00000000	0.00109839
449.00000000	0.00197814
450.00000000	0.00262850
451.00000000	0.00284244
452.00000000	0.00274674
453.00000000	0.00326465
454.00000000	0.00566351
455.00000000	0.00520976
456.00000000	0.00577340
457.00000000	0.00526273
458.00000000	0.00610222
459.00000000	0.00633078
460.00000000	0.00810651
461.00000000	0.00908098
462.00000000	0.01100557
463.00000000	0.01374190
464.00000000	0.01531338
465.00000000	0.01639701
466.00000000	0.02087124
467.00000000	0.02376067
468.00000000	0.02795204
469.00000000	0.03205868
470.00000000	0.03654743
471.00000000	0.04421884
472.00000000	0.05163389
473.00000000	0.05998489
474.00000000	0.06939045
475.00000000	0.07928222
476.00000000	0.09459855
477.00000000	0.10998911
478.00000000	0.13354877
479.00000000	0.14992815
480.00000000	0.17569560
481.00000000	0.20339707
482.00000000	0.22703194
483.00000000	0.26702655
484.00000000	0.30514235
485.00000000	0.35201253
486.00000000	0.39972880
487.00000000	0.44759873
488.00000000	0.49642872
489.00000000	0.55120522
490.00000000	0.60498569
491.00000000	0.66275619
492.00000000	0.72144758
493.00000000	0.77724009
494.00000000	0.81973437
495.00000000	0.87381176
496.00000000	0.91725284
497.00000000	0.94862373
498.00000000	0.96361497
499.00000000	0.98584650
500.00000000	0.99686339
501.00000000	1.00000000
502.00000000	0.99994919
503.00000000	0.99804739
504.00000000	0.99285871
505.00000000	0.98088202
506.00000000	0.95835998
507.00000000	0.93448555
508.00000000	0.90782384
509.00000000	0.87761476
510.00000000	0.83728003
511.00000000	0.79748137
512.00000000	0.75167064
513.00000000	0.69958755
514.00000000	0.66684342
515.00000000	0.62934775
516.00000000	0.59532690
517.00000000	0.56233322
518.00000000	0.52068357
519.00000000	0.49076592
520.00000000	0.46467086
521.00000000	0.43276639
522.00000000	0.40473834
523.00000000	0.38126536
524.00000000	0.35100703
525.00000000	0.33211435
526.00000000	0.30283437
527.00000000	0.27915160
528.00000000	0.25849095
529.00000000	0.24599865
530.00000000	0.22433540
531.00000000	0.20819769
532.00000000	0.18696821
533.00000000	0.17539136
534.00000000	0.16042772
535.00000000	0.14981520
536.00000000	0.14014812
537.00000000	0.12512352
538.00000000	0.11926863
539.00000000	0.10761763
540.00000000	0.09717914
541.00000000	0.09186195
542.00000000	0.08154919
543.00000000	0.08053695
544.00000000	0.07602908
545.00000000	0.06771697
546.00000000	0.06171071
547.00000000	0.05763545
548.00000000	0.05378068
549.00000000	0.05031698
550.00000000	0.04517124
551.00000000	0.04170521
552.00000000	0.03995716
553.00000000	0.03814303
554.00000000	0.03250640
555.00000000	0.02917517
556.00000000	0.02995555
557.00000000	0.02745350
558.00000000	0.02449190
559.00000000	0.02347105
560.00000000	0.02231467
561.00000000	0.02078808
562.00000000	0.01818955
563.00000000	0.01801271
564.00000000	0.01478017
565.00000000	0.01457205
566.00000000	0.01357174
567.00000000	0.01376396
568.00000000	0.01143997
569.00000000	0.01304241
570.00000000	0.00981976
571.00000000	0.00833825
572.00000000	0.00791484
573.00000000	0.00713622
574.00000000	0.00589653
575.00000000	0.00795876
576.00000000	0.00518087
577.00000000	0.00540216
578.00000000	0.00557231
579.00000000	0.00382578
580.00000000	0.00444859
581.00000000	0.00318896
582.00000000	0.00420299
583.00000000	0.00256632
584.00000000	0.00356349
585.00000000	0.00237472
586.00000000	0.00393752
587.00000000	0.00222570
588.00000000	0.00280738
589.00000000	0.00320630
590.00000000	0.00179145
591.00000000	0.00244759
592.00000000	0.00193207
593.00000000	0.00212527
594.00000000	0.00205063
595.00000000	0.00143479
596.00000000	0.00099338
597.00000000	0.00002089
598.00000000	0.00100733
599.00000000	0.00137185
600.00000000	0.00032699
601.00000000	0.00177948
602.00000000	0.00165845
603.00000000	0.00004351
604.00000000	0.00016234
605.00000000	0.00021292
606.00000000	0.00193898
607.00000000	0.00098064
608.00000000	0.00216083
609.00000000	0.00099606
610.00000000	0.00140664
611.00000000	0.00007145
612.00000000	0.00000273
613.00000000	0.00081196
614.00000000	0.00110356
615.00000000	0.00033236
616.00000000	0.00000000
617.00000000	0.00037307
618.00000000	0.00000000
619.00000000	0.00149323
620.00000000	0.00024566
621.00000000	0.00014351
622.00000000	0.00000000
623.00000000	0.00024171
624.00000000	0.00164070
625.00000000	0.00164734
626.00000000	0.00047300
627.00000000	0.00000000
628.00000000	0.00159067
629.00000000	0.00076349
630.00000000	0.00000343
631.00000000	0.00056623
632.00000000	0.00000000
633.00000000	0.00004058
634.00000000	0.00126067
635.00000000	0.00120554
636.00000000	0.00000000
637.00000000	0.00048686
638.00000000	0.00004507
639.00000000	0.00000000
640.00000000	0.00068069
641.00000000	0.00025739
642.00000000	0.00018685
643.00000000	0.00066991
644.00000000	0.00024143
645.00000000	0.00000000
646.00000000	0.00069543
647.00000000	0.00059769
648.00000000	0.00001288
649.00000000	0.00024061
650.00000000	0.00080914
651.00000000	0.00024145
652.00000000	0.00035865
653.00000000	0.00000000
654.00000000	0.00011162
655.00000000	0.00034324
656.00000000	0.00000000
657.00000000	0.00027594
658.00000000	0.00001216
659.00000000	0.00024320
660.00000000	0.00005408
661.00000000	0.00012313
662.00000000	0.00000000
663.00000000	0.00000000
664.00000000	0.00065244
665.00000000	0.00072724
666.00000000	0.00012717
667.00000000	0.00068337
668.00000000	0.00003755
669.00000000	0.00029205
670.00000000	0.00241290
671.00000000	0.00032877
672.00000000	0.00000000
673.00000000	0.00082503
674.00000000	0.00047356
675.00000000	0.00029672
676.00000000	0.00101538
677.00000000	0.00002848
678.00000000	0.00039589
679.00000000	0.00000000
680.00000000	0.00025182
681.00000000	0.00042472
682.00000000	0.00000016
683.00000000	0.00000000
684.00000000	0.00035944
685.00000000	0.00000000
686.00000000	0.00014183
687.00000000	0.00002264
688.00000000	0.00052426
689.00000000	0.00000000
690.00000000	0.00053404
691.00000000	0.00000000
692.00000000	0.00010529
693.00000000	0.00032560
694.00000000	0.00016723
695.00000000	0.00018971
696.00000000	0.00004309
697.00000000	0.00000000
698.00000000	0.00057347
699.00000000	0.00026904
700.00000000	0.00092606
701.00000000	0.00000000
702.00000000	0.00045427
703.00000000	0.00001266
704.00000000	0.00000000
705.00000000	0.00173636
706.00000000	0.00058176
707.00000000	0.00000000
708.00000000	0.00007058
709.00000000	0.00000000
710.00000000	0.00003306
711.00000000	0.00126648
712.00000000	0.00038754
713.00000000	0.00100713
714.00000000	0.00000000
715.00000000	0.00000000
716.00000000	0.00015058
717.00000000	0.00082449
718.00000000	0.00012209
719.00000000	0.00011774
720.00000000	0.00037170
721.00000000	0.00000000
722.00000000	0.00073259
723.00000000	0.00000000
724.00000000	0.00019425
725.00000000	0.00000000
726.00000000	0.00019657
727.00000000	0.00083822
728.00000000	0.00000000
729.00000000	0.00000000
730.00000000	0.00002786
731.00000000	0.00000000
732.00000000	0.00000097
733.00000000	0.00100435
734.00000000	0.00000000
735.00000000	0.00075701
736.00000000	0.00001678
737.00000000	0.00000000
738.00000000	0.00003108
739.00000000	0.00016479
740.00000000	0.00033810
741.00000000	0.00022018
742.00000000	0.00014804
743.00000000	0.00002948
744.00000000	0.00034029
745.00000000	0.00095163
746.00000000	0.00013699
747.00000000	0.00059628
748.00000000	0.00000000
749.00000000	0.00000018
750.00000000	0.00078830
751.00000000	0.00035223
752.00000000	0.00023066
753.00000000	0.00000908
754.00000000	0.00000000
755.00000000	0.00000000
756.00000000	0.00086726
757.00000000	0.00094399
758.00000000	0.00066350
759.00000000	0.00187779
760.00000000	0.00017531
761.00000000	0.00000000
762.00000000	0.00004886
763.00000000	0.00066446
764.00000000	0.00048899
765.00000000	0.00004309
766.00000000	0.00000000
767.00000000	0.00001045
768.00000000	0.00000000
769.00000000	0.00075563
770.00000000	0.00000000
771.00000000	0.00000000
772.00000000	0.00000000
773.00000000	0.00000000
774.00000000	0.00003084
775.00000000	0.00002911
776.00000000	0.00002228
777.00000000	0.00000000
778.00000000	0.00005711
779.00000000	0.00007073
780.00000000	0.00045887
781.00000000	0.00005503
782.00000000	0.00000000
783.00000000	0.00022743
784.00000000	0.00020734
785.00000000	0.00000000
786.00000000	0.00160747
787.00000000	0.00034784
788.00000000	0.00000000
789.00000000	0.00006195
790.00000000	0.00008619
791.00000000	0.00064314
792.00000000	0.00059473
793.00000000	0.00071236
794.00000000	0.00000000
795.00000000	0.00147406
796.00000000	0.00005563
797.00000000	0.00078636
798.00000000	0.00000000
799.00000000	0.00000000
800.00000000	0.00000000
801.00000000	0.00000000
802.00000000	0.00042859
803.00000000	0.00068416
804.00000000	0.00031128
805.00000000	0.00199334
806.00000000	0.00142219
807.00000000	0.00000073
808.00000000	0.00153349
809.00000000	0.00000202
810.00000000	0.00006323
811.00000000	0.00000000
812.00000000	0.00015086
813.00000000	0.00004912
814.00000000	0.00000000
815.00000000	0.00000000
816.00000000	0.00000000
817.00000000	0.00094895
818.00000000	0.00000000
819.00000000	0.00018475
820.00000000	0.00000000
821.00000000	0.00008680
822.00000000	0.00095863
823.00000000	0.00000000
824.00000000	0.00000652
825.00000000	0.00000000
826.00000000	0.00000237
827.00000000	0.00000000
828.00000000	0.00098431
829.00000000	0.00018039
830.00000000	0.00000000
831.00000000	0.00007752
832.00000000	0.00045576
833.00000000	0.00078419
834.00000000	0.00037576
835.00000000	0.00068576
836.00000000	0.00055297
837.00000000	0.00000000
838.00000000	0.00089516
839.00000000	0.00000000
840.00000000	0.00024266
841.00000000	0.00022591
842.00000000	0.00000000
843.00000000	0.00035403
844.00000000	0.00021937
845.00000000	0.00000000
846.00000000	0.00000095
847.00000000	0.00053031
848.00000000	0.00000000
849.00000000	0.00011281
850.00000000	0.00086863
851.00000000	0.00000000
852.00000000	0.00026560
853.00000000	0.00051560
854.00000000	0.00049476
855.00000000	0.00000000
856.00000000	0.00000000
857.00000000	0.00000000
858.00000000	0.00000000
859.00000000	0.00010660
860.00000000	0.00000001
861.00000000	0.00093929
862.00000000	0.00044792
863.00000000	0.00000000
864.00000000	0.00000000
865.00000000	0.00000000
866.00000000	0.00060956
867.00000000	0.00103343
868.00000000	0.00001725
869.00000000	0.00015897
870.00000000	0.00000000
871.00000000	0.00000000
872.00000000	0.00000106
873.00000000	0.00000000
874.00000000	0.00000000
875.00000000	0.00000000
876.00000000	0.00022777
877.00000000	0.00000000
878.00000000	0.00032104
879.00000000	0.00002466
880.00000000	0.00000000
881.00000000	0.00075751
882.00000000	0.00000000
883.00000000	0.00091991
884.00000000	0.00000000
885.00000000	0.00000000
886.00000000	0.00088317
887.00000000	0.00000000
888.00000000	0.00024938
889.00000000	0.00056021
890.00000000	0.00018471
891.00000000	0.00000000
892.00000000	0.00109854
893.00000000	0.00101459
894.00000000	0.00097730
895.00000000	0.00013032
896.00000000	0.00029428
897.00000000	0.00101123
898.00000000	0.00012566
899.00000000	0.00000000
900.00000000	0.00011934
