#LICA Lamps Spectra Database
#Website 1: https://guaix.fis.ucm.es/lamps_spectra
#Website 2: http://carlostapia.es/lamparas/lamps.html
#Latest update: 2017/12/15
#Tester: Carlos Eugenio Tapia Ayuga
#Correct for Electrical Dark: Yes (JAZA2310)
#Correct for Detector Non-linearity: Yes (JAZA2310)
#Correct for Flux: Yes
#Start wavelength (nm): 300
#End wavelength (nm): 900
#Steps (nm):	1
#Locus: D65 sRGB Gamma 1 CIE1931
#XYZ coordinates: 0.7978	0.7191	0.3654
#xyY coordinates: 0.4239	0.3820	0.7191
#sRGB: 255	116	56
#CCT Lindbloom (K):	3045
#CCT McCamy (K):	3053
#CCT Hernández-Andrés (K):	3025
#Melatonin: 0.380
#Chlorophyll a: 0.175
#Chlorophyll b: 0.681
#Beta Carotene: 0.176
#Manufacturer: Philips
#Luminance manufacturer: Unknown
#Other data: Madrid streetlamp at Moncloa intermodal transportation hub
#Begin Processed Spectral Data
W	S
300.00000000	0.00000000
301.00000000	0.00000000
302.00000000	0.00000000
303.00000000	0.00867403
304.00000000	0.00000000
305.00000000	0.00000000
306.00000000	0.00000000
307.00000000	0.00000000
308.00000000	0.00189230
309.00000000	0.00000000
310.00000000	0.00000000
311.00000000	0.00000000
312.00000000	0.00000000
313.00000000	0.00000000
314.00000000	0.00189173
315.00000000	0.00000000
316.00000000	0.00053015
317.00000000	0.00112363
318.00000000	0.00325000
319.00000000	0.00000000
320.00000000	0.00000000
321.00000000	0.00000000
322.00000000	0.00000000
323.00000000	0.00000000
324.00000000	0.00000000
325.00000000	0.00000000
326.00000000	0.00000000
327.00000000	0.00000000
328.00000000	0.00053776
329.00000000	0.00000000
330.00000000	0.00000000
331.00000000	0.00000000
332.00000000	0.00019874
333.00000000	0.00029423
334.00000000	0.00173693
335.00000000	0.00100115
336.00000000	0.00468365
337.00000000	0.00000000
338.00000000	0.00000000
339.00000000	0.00000000
340.00000000	0.00000000
341.00000000	0.00000000
342.00000000	0.00000000
343.00000000	0.00000000
344.00000000	0.00000000
345.00000000	0.00098090
346.00000000	0.00176895
347.00000000	0.00000000
348.00000000	0.00131232
349.00000000	0.00138842
350.00000000	0.00000000
351.00000000	0.00000000
352.00000000	0.00307036
353.00000000	0.00327268
354.00000000	0.00188613
355.00000000	0.00368767
356.00000000	0.00000000
357.00000000	0.00000000
358.00000000	0.00000000
359.00000000	0.00228733
360.00000000	0.00000000
361.00000000	0.00053116
362.00000000	0.00000000
363.00000000	0.00064403
364.00000000	0.00000000
365.00000000	0.00000000
366.00000000	0.00000000
367.00000000	0.00316255
368.00000000	0.00192590
369.00000000	0.00000000
370.00000000	0.00434735
371.00000000	0.00274727
372.00000000	0.00420634
373.00000000	0.00277771
374.00000000	0.00025000
375.00000000	0.00224870
376.00000000	0.00000000
377.00000000	0.00000000
378.00000000	0.00196869
379.00000000	0.00067906
380.00000000	0.00000000
381.00000000	0.00000000
382.00000000	0.00000000
383.00000000	0.00000000
384.00000000	0.00038067
385.00000000	0.00000000
386.00000000	0.00000000
387.00000000	0.00169873
388.00000000	0.00000000
389.00000000	0.00000000
390.00000000	0.00000000
391.00000000	0.00252369
392.00000000	0.00254954
393.00000000	0.00129135
394.00000000	0.00078188
395.00000000	0.00214503
396.00000000	0.00118222
397.00000000	0.00370275
398.00000000	0.00264790
399.00000000	0.00246683
400.00000000	0.00195749
401.00000000	0.00213670
402.00000000	0.00330528
403.00000000	0.00220347
404.00000000	0.00601406
405.00000000	0.00685467
406.00000000	0.00586760
407.00000000	0.00694313
408.00000000	0.00873663
409.00000000	0.01016972
410.00000000	0.01033600
411.00000000	0.01423318
412.00000000	0.01553085
413.00000000	0.01925083
414.00000000	0.02226634
415.00000000	0.02749479
416.00000000	0.03265346
417.00000000	0.03523272
418.00000000	0.04553784
419.00000000	0.05402232
420.00000000	0.05885962
421.00000000	0.07152273
422.00000000	0.08435600
423.00000000	0.10007596
424.00000000	0.11169901
425.00000000	0.12793161
426.00000000	0.14662644
427.00000000	0.16781682
428.00000000	0.19052888
429.00000000	0.21836026
430.00000000	0.23755609
431.00000000	0.25821100
432.00000000	0.28233934
433.00000000	0.31068924
434.00000000	0.33213522
435.00000000	0.36531395
436.00000000	0.38459436
437.00000000	0.40817001
438.00000000	0.43790761
439.00000000	0.46391748
440.00000000	0.50166887
441.00000000	0.53493131
442.00000000	0.56323598
443.00000000	0.61240736
444.00000000	0.63949004
445.00000000	0.67890741
446.00000000	0.70527081
447.00000000	0.72366438
448.00000000	0.74113621
449.00000000	0.74928052
450.00000000	0.73099378
451.00000000	0.72408727
452.00000000	0.69893323
453.00000000	0.65820957
454.00000000	0.60718236
455.00000000	0.56826685
456.00000000	0.51328775
457.00000000	0.46343213
458.00000000	0.42133684
459.00000000	0.37618111
460.00000000	0.34703741
461.00000000	0.31440176
462.00000000	0.28830085
463.00000000	0.26315025
464.00000000	0.25010504
465.00000000	0.23178858
466.00000000	0.21540463
467.00000000	0.20170232
468.00000000	0.19475747
469.00000000	0.18268727
470.00000000	0.16634927
471.00000000	0.15898254
472.00000000	0.14678425
473.00000000	0.14053598
474.00000000	0.13249220
475.00000000	0.12627552
476.00000000	0.11947700
477.00000000	0.11239530
478.00000000	0.10807164
479.00000000	0.10644830
480.00000000	0.10230212
481.00000000	0.10077498
482.00000000	0.09763642
483.00000000	0.09988613
484.00000000	0.10006878
485.00000000	0.10010138
486.00000000	0.09963196
487.00000000	0.10111602
488.00000000	0.10476866
489.00000000	0.10468394
490.00000000	0.11055943
491.00000000	0.11473605
492.00000000	0.11832723
493.00000000	0.12458067
494.00000000	0.12968936
495.00000000	0.13524636
496.00000000	0.14362688
497.00000000	0.15327663
498.00000000	0.15718099
499.00000000	0.16924933
500.00000000	0.17808016
501.00000000	0.18954941
502.00000000	0.20191413
503.00000000	0.20820892
504.00000000	0.21984920
505.00000000	0.22546880
506.00000000	0.24062918
507.00000000	0.25148600
508.00000000	0.26690556
509.00000000	0.27903564
510.00000000	0.28828075
511.00000000	0.29877413
512.00000000	0.31372959
513.00000000	0.31751333
514.00000000	0.33611798
515.00000000	0.34626415
516.00000000	0.35633737
517.00000000	0.36499258
518.00000000	0.37071931
519.00000000	0.38258546
520.00000000	0.39554194
521.00000000	0.40560625
522.00000000	0.41745359
523.00000000	0.42062016
524.00000000	0.43472181
525.00000000	0.44783738
526.00000000	0.45145426
527.00000000	0.46100609
528.00000000	0.47525032
529.00000000	0.48019417
530.00000000	0.49146397
531.00000000	0.49686675
532.00000000	0.50753546
533.00000000	0.50733170
534.00000000	0.51695058
535.00000000	0.53055021
536.00000000	0.53248832
537.00000000	0.54016307
538.00000000	0.54509988
539.00000000	0.56629471
540.00000000	0.56778796
541.00000000	0.57869719
542.00000000	0.58664505
543.00000000	0.59863441
544.00000000	0.60289015
545.00000000	0.61130082
546.00000000	0.61451879
547.00000000	0.62763724
548.00000000	0.64028125
549.00000000	0.64218030
550.00000000	0.65252189
551.00000000	0.66050925
552.00000000	0.66731912
553.00000000	0.68307398
554.00000000	0.69315969
555.00000000	0.69629710
556.00000000	0.71494857
557.00000000	0.72576533
558.00000000	0.73931054
559.00000000	0.74689396
560.00000000	0.76358951
561.00000000	0.76662670
562.00000000	0.78063975
563.00000000	0.78534767
564.00000000	0.79422430
565.00000000	0.80371539
566.00000000	0.82345660
567.00000000	0.82945329
568.00000000	0.83999894
569.00000000	0.84622409
570.00000000	0.85387428
571.00000000	0.86311909
572.00000000	0.87405518
573.00000000	0.88134049
574.00000000	0.88780300
575.00000000	0.89651235
576.00000000	0.90870188
577.00000000	0.90757064
578.00000000	0.91092661
579.00000000	0.92331315
580.00000000	0.93220084
581.00000000	0.94224204
582.00000000	0.95280621
583.00000000	0.95394995
584.00000000	0.96882486
585.00000000	0.97406422
586.00000000	0.97330173
587.00000000	0.97809480
588.00000000	0.98250591
589.00000000	0.98811059
590.00000000	0.99163183
591.00000000	0.99413944
592.00000000	0.99363255
593.00000000	0.99034507
594.00000000	0.98818956
595.00000000	0.98520637
596.00000000	0.98741085
597.00000000	0.99121124
598.00000000	0.99268065
599.00000000	0.99367749
600.00000000	1.00000000
601.00000000	0.98527630
602.00000000	0.99088341
603.00000000	0.99029151
604.00000000	0.98103909
605.00000000	0.96626225
606.00000000	0.97061980
607.00000000	0.95067856
608.00000000	0.94871863
609.00000000	0.93947323
610.00000000	0.92398302
611.00000000	0.91760293
612.00000000	0.90449210
613.00000000	0.89692907
614.00000000	0.89036791
615.00000000	0.89904365
616.00000000	0.89510009
617.00000000	0.88932210
618.00000000	0.89444286
619.00000000	0.88597144
620.00000000	0.89156305
621.00000000	0.87921399
622.00000000	0.86795539
623.00000000	0.86247794
624.00000000	0.85033795
625.00000000	0.85038189
626.00000000	0.83679446
627.00000000	0.82099997
628.00000000	0.81570632
629.00000000	0.78868626
630.00000000	0.78091703
631.00000000	0.76736851
632.00000000	0.74485677
633.00000000	0.73410894
634.00000000	0.72039888
635.00000000	0.71012908
636.00000000	0.69589547
637.00000000	0.69339734
638.00000000	0.67298482
639.00000000	0.66107329
640.00000000	0.65006713
641.00000000	0.63491149
642.00000000	0.62718836
643.00000000	0.61844699
644.00000000	0.60558371
645.00000000	0.59764346
646.00000000	0.57957010
647.00000000	0.56850794
648.00000000	0.56445410
649.00000000	0.54782675
650.00000000	0.53661985
651.00000000	0.52739471
652.00000000	0.51724208
653.00000000	0.49853633
654.00000000	0.48641774
655.00000000	0.48565740
656.00000000	0.47511965
657.00000000	0.45351744
658.00000000	0.44527033
659.00000000	0.43868762
660.00000000	0.43275929
661.00000000	0.42973215
662.00000000	0.41344800
663.00000000	0.40307280
664.00000000	0.39461259
665.00000000	0.39249427
666.00000000	0.37226842
667.00000000	0.36687699
668.00000000	0.35384900
669.00000000	0.35132417
670.00000000	0.33879719
671.00000000	0.33424593
672.00000000	0.32681616
673.00000000	0.31510193
674.00000000	0.31034978
675.00000000	0.29719946
676.00000000	0.29137839
677.00000000	0.28696455
678.00000000	0.27561362
679.00000000	0.27427057
680.00000000	0.26297507
681.00000000	0.26325910
682.00000000	0.25363404
683.00000000	0.24466924
684.00000000	0.23747755
685.00000000	0.23938765
686.00000000	0.23044726
687.00000000	0.22332636
688.00000000	0.21658872
689.00000000	0.21473318
690.00000000	0.20136688
691.00000000	0.20306418
692.00000000	0.19900747
693.00000000	0.19226853
694.00000000	0.18667793
695.00000000	0.18040856
696.00000000	0.17864664
697.00000000	0.17275894
698.00000000	0.16265040
699.00000000	0.16462268
700.00000000	0.16364250
701.00000000	0.15683019
702.00000000	0.15227060
703.00000000	0.15331368
704.00000000	0.14216694
705.00000000	0.13571434
706.00000000	0.13355868
707.00000000	0.12871090
708.00000000	0.12663796
709.00000000	0.12241194
710.00000000	0.11990391
711.00000000	0.11557206
712.00000000	0.11126951
713.00000000	0.10884419
714.00000000	0.10717776
715.00000000	0.10707021
716.00000000	0.10421223
717.00000000	0.10037766
718.00000000	0.09454036
719.00000000	0.09601609
720.00000000	0.09028333
721.00000000	0.08817319
722.00000000	0.08398322
723.00000000	0.08487193
724.00000000	0.07737252
725.00000000	0.07744618
726.00000000	0.07358548
727.00000000	0.07263315
728.00000000	0.07398596
729.00000000	0.06692509
730.00000000	0.06991762
731.00000000	0.06400235
732.00000000	0.06398325
733.00000000	0.06146042
734.00000000	0.05759828
735.00000000	0.05647594
736.00000000	0.05769018
737.00000000	0.05474289
738.00000000	0.05555305
739.00000000	0.04956139
740.00000000	0.05233967
741.00000000	0.05547939
742.00000000	0.04664812
743.00000000	0.04858221
744.00000000	0.04285720
745.00000000	0.04234227
746.00000000	0.04010922
747.00000000	0.03939196
748.00000000	0.04004991
749.00000000	0.04254417
750.00000000	0.03762674
751.00000000	0.03559874
752.00000000	0.03591135
753.00000000	0.03023976
754.00000000	0.03197109
755.00000000	0.03099148
756.00000000	0.02807980
757.00000000	0.03161411
758.00000000	0.02651906
759.00000000	0.02774091
760.00000000	0.02806817
761.00000000	0.01989730
762.00000000	0.02958339
763.00000000	0.02385709
764.00000000	0.02568405
765.00000000	0.02523029
766.00000000	0.02430697
767.00000000	0.01644024
768.00000000	0.01953214
769.00000000	0.02078817
770.00000000	0.02318291
771.00000000	0.02079104
772.00000000	0.01980238
773.00000000	0.01875586
774.00000000	0.01374438
775.00000000	0.01900629
776.00000000	0.01943866
777.00000000	0.01660121
778.00000000	0.01649940
779.00000000	0.01202109
780.00000000	0.01099970
781.00000000	0.01654234
782.00000000	0.00864674
783.00000000	0.01743349
784.00000000	0.00746036
785.00000000	0.01722197
786.00000000	0.01238008
787.00000000	0.01353229
788.00000000	0.01585308
789.00000000	0.01291627
790.00000000	0.00387306
791.00000000	0.00611171
792.00000000	0.00488655
793.00000000	0.00916555
794.00000000	0.00845619
795.00000000	0.00822371
796.00000000	0.00862463
797.00000000	0.00606346
798.00000000	0.00348334
799.00000000	0.00578517
800.00000000	0.00011387
801.00000000	0.00600875
802.00000000	0.00008242
803.00000000	0.01234188
804.00000000	0.00699597
805.00000000	0.00873118
806.00000000	0.00649927
807.00000000	0.00500330
808.00000000	0.00081979
809.00000000	0.01164545
810.00000000	0.00023478
811.00000000	0.00000000
812.00000000	0.00638856
813.00000000	0.00614962
814.00000000	0.00000000
815.00000000	0.00000000
816.00000000	0.00916024
817.00000000	0.00000000
818.00000000	0.00640479
819.00000000	0.00831059
820.00000000	0.00511243
821.00000000	0.00325086
822.00000000	0.00455643
823.00000000	0.00772026
824.00000000	0.00000000
825.00000000	0.00210999
826.00000000	0.00000000
827.00000000	0.00000000
828.00000000	0.00000000
829.00000000	0.00000000
830.00000000	0.00000000
831.00000000	0.00000000
832.00000000	0.00000000
833.00000000	0.00699956
834.00000000	0.00000000
835.00000000	0.00248923
836.00000000	0.00000000
837.00000000	0.01044283
838.00000000	0.00000000
839.00000000	0.00000000
840.00000000	0.00000000
841.00000000	0.00000000
842.00000000	0.00000000
843.00000000	0.00353173
844.00000000	0.00200876
845.00000000	0.00000000
846.00000000	0.00484520
847.00000000	0.00000000
848.00000000	0.00010511
849.00000000	0.00112751
850.00000000	0.00000000
851.00000000	0.00000000
852.00000000	0.00000000
853.00000000	0.00000000
854.00000000	0.00163196
855.00000000	0.00000000
856.00000000	0.00335539
857.00000000	0.00000000
858.00000000	0.00000000
859.00000000	0.00000000
860.00000000	0.00000000
861.00000000	0.00000000
862.00000000	0.00000000
863.00000000	0.00000000
864.00000000	0.00836731
865.00000000	0.00000000
866.00000000	0.00000000
867.00000000	0.00000000
868.00000000	0.00000000
869.00000000	0.00000000
870.00000000	0.00000000
871.00000000	0.00853732
872.00000000	0.00041427
873.00000000	0.00000000
874.00000000	0.00343049
875.00000000	0.00000000
876.00000000	0.00000000
877.00000000	0.00000000
878.00000000	0.00000000
879.00000000	0.00000000
880.00000000	0.00000000
881.00000000	0.00000000
882.00000000	0.00000000
883.00000000	0.00000000
884.00000000	0.00000000
885.00000000	0.00000000
886.00000000	0.00000000
887.00000000	0.00000000
888.00000000	0.00000000
889.00000000	0.00331605
890.00000000	0.00308271
891.00000000	0.00000000
892.00000000	0.00000000
893.00000000	0.00000000
894.00000000	0.00000000
895.00000000	0.00000000
896.00000000	0.00000000
897.00000000	0.00471036
898.00000000	0.00919930
899.00000000	0.00000000
900.00000000	0.00000000
