#LICA Lamps Spectra Database
#Website 1: https://guaix.fis.ucm.es/lamps_spectra
#Website 2: http://carlostapia.es/lamparas/lamps.html
#Latest update: 2017/12/17
#Tester: Carlos Eugenio Tapia Ayuga
#Correct for Electrical Dark: Yes (JAZA2310)
#Correct for Detector Non-linearity: Yes (JAZA2310)
#Correct for Flux: Yes
#Start wavelength (nm): 300
#End wavelength (nm): 900
#Steps (nm):	1
#Locus: D65 sRGB Gamma 1 CIE1931
#XYZ coordinates: 0.0536	0.0313	0.3373
#xyY coordinates: 0.1269	0.0743	0.0313
#sRGB: 0	5	90
#CCT Lindbloom (K):	0
#CCT McCamy (K):	2101
#CCT Hernández-Andrés (K):	0
#Melatonin: 6.435
#Chlorophyll a: -0.001
#Chlorophyll b: 6.904
#Beta Carotene: -0.020
#Manufacturer: Kingbright
#Luminance manufacturer: 1100mc
#Other data: Kingbright Blue 465nm
#Begin Processed Spectral Data
W	S
300.00000000	0.00000000
301.00000000	0.00264943
302.00000000	0.00043964
303.00000000	0.00047907
304.00000000	0.00007379
305.00000000	0.00157077
306.00000000	0.00000000
307.00000000	0.00011112
308.00000000	0.00000000
309.00000000	0.00000616
310.00000000	0.00157334
311.00000000	0.00092305
312.00000000	0.00183961
313.00000000	0.00000000
314.00000000	0.00000000
315.00000000	0.00172812
316.00000000	0.00010799
317.00000000	0.00000000
318.00000000	0.00000000
319.00000000	0.00000000
320.00000000	0.00284698
321.00000000	0.00000000
322.00000000	0.00002241
323.00000000	0.00216798
324.00000000	0.00000000
325.00000000	0.00000000
326.00000000	0.00002040
327.00000000	0.00000785
328.00000000	0.00208901
329.00000000	0.00127726
330.00000000	0.00181443
331.00000000	0.00000000
332.00000000	0.00143806
333.00000000	0.00009134
334.00000000	0.00000000
335.00000000	0.00000000
336.00000000	0.00001211
337.00000000	0.00019338
338.00000000	0.00195596
339.00000000	0.00071891
340.00000000	0.00000000
341.00000000	0.00000000
342.00000000	0.00058041
343.00000000	0.00000000
344.00000000	0.00012262
345.00000000	0.00183895
346.00000000	0.00018253
347.00000000	0.00172139
348.00000000	0.00082588
349.00000000	0.00015459
350.00000000	0.00043941
351.00000000	0.00026450
352.00000000	0.00116926
353.00000000	0.00000000
354.00000000	0.00208297
355.00000000	0.00191370
356.00000000	0.00054928
357.00000000	0.00185256
358.00000000	0.00214977
359.00000000	0.00000000
360.00000000	0.00000000
361.00000000	0.00000000
362.00000000	0.00007764
363.00000000	0.00097458
364.00000000	0.00000000
365.00000000	0.00003106
366.00000000	0.00043569
367.00000000	0.00003691
368.00000000	0.00064700
369.00000000	0.00061485
370.00000000	0.00009163
371.00000000	0.00002016
372.00000000	0.00265527
373.00000000	0.00025870
374.00000000	0.00000000
375.00000000	0.00013792
376.00000000	0.00061266
377.00000000	0.00000000
378.00000000	0.00077136
379.00000000	0.00001269
380.00000000	0.00000000
381.00000000	0.00142085
382.00000000	0.00043656
383.00000000	0.00000000
384.00000000	0.00000000
385.00000000	0.00000000
386.00000000	0.00033627
387.00000000	0.00098469
388.00000000	0.00068274
389.00000000	0.00075975
390.00000000	0.00090930
391.00000000	0.00042193
392.00000000	0.00005844
393.00000000	0.00167772
394.00000000	0.00000000
395.00000000	0.00087622
396.00000000	0.00000000
397.00000000	0.00000000
398.00000000	0.00079206
399.00000000	0.00010381
400.00000000	0.00038345
401.00000000	0.00002286
402.00000000	0.00154592
403.00000000	0.00021418
404.00000000	0.00181678
405.00000000	0.00131653
406.00000000	0.00031717
407.00000000	0.00117674
408.00000000	0.00077605
409.00000000	0.00123171
410.00000000	0.00000000
411.00000000	0.00148325
412.00000000	0.00034045
413.00000000	0.00049187
414.00000000	0.00119731
415.00000000	0.00041297
416.00000000	0.00043690
417.00000000	0.00143662
418.00000000	0.00065064
419.00000000	0.00319548
420.00000000	0.00135747
421.00000000	0.00154249
422.00000000	0.00210012
423.00000000	0.00306011
424.00000000	0.00257404
425.00000000	0.00361783
426.00000000	0.00394123
427.00000000	0.00522742
428.00000000	0.00531709
429.00000000	0.00789188
430.00000000	0.00789385
431.00000000	0.01050726
432.00000000	0.01005185
433.00000000	0.01370326
434.00000000	0.01537603
435.00000000	0.01864127
436.00000000	0.02381621
437.00000000	0.02671395
438.00000000	0.03156818
439.00000000	0.03811939
440.00000000	0.04293823
441.00000000	0.05225775
442.00000000	0.06191704
443.00000000	0.07062259
444.00000000	0.07999616
445.00000000	0.09311977
446.00000000	0.10697468
447.00000000	0.12623762
448.00000000	0.14704845
449.00000000	0.17475014
450.00000000	0.19754006
451.00000000	0.22281315
452.00000000	0.25884119
453.00000000	0.29865096
454.00000000	0.34463519
455.00000000	0.38715648
456.00000000	0.44580459
457.00000000	0.50756147
458.00000000	0.57164049
459.00000000	0.65010895
460.00000000	0.72114495
461.00000000	0.78907690
462.00000000	0.85034786
463.00000000	0.89523012
464.00000000	0.95465960
465.00000000	0.97510247
466.00000000	0.98710842
467.00000000	1.00000000
468.00000000	0.99068696
469.00000000	0.96024493
470.00000000	0.93014262
471.00000000	0.89734188
472.00000000	0.85188497
473.00000000	0.80028795
474.00000000	0.75796170
475.00000000	0.71151025
476.00000000	0.65916965
477.00000000	0.61822133
478.00000000	0.56379113
479.00000000	0.52954534
480.00000000	0.49051609
481.00000000	0.45683288
482.00000000	0.41848960
483.00000000	0.38741103
484.00000000	0.36257923
485.00000000	0.33539379
486.00000000	0.30829826
487.00000000	0.27962353
488.00000000	0.25564839
489.00000000	0.23363014
490.00000000	0.20860363
491.00000000	0.19215221
492.00000000	0.17700071
493.00000000	0.16170210
494.00000000	0.14538768
495.00000000	0.13434971
496.00000000	0.12134327
497.00000000	0.11193573
498.00000000	0.10147803
499.00000000	0.09266413
500.00000000	0.08621593
501.00000000	0.07674109
502.00000000	0.06928609
503.00000000	0.06563731
504.00000000	0.05869156
505.00000000	0.05239998
506.00000000	0.04876880
507.00000000	0.04453830
508.00000000	0.04008505
509.00000000	0.03585526
510.00000000	0.03403388
511.00000000	0.03012912
512.00000000	0.02746269
513.00000000	0.02523171
514.00000000	0.02224580
515.00000000	0.02097407
516.00000000	0.01908627
517.00000000	0.01774795
518.00000000	0.01601553
519.00000000	0.01397754
520.00000000	0.01324957
521.00000000	0.01219217
522.00000000	0.01109881
523.00000000	0.01064687
524.00000000	0.00942592
525.00000000	0.00834532
526.00000000	0.00791497
527.00000000	0.00709343
528.00000000	0.00701051
529.00000000	0.00634583
530.00000000	0.00586149
531.00000000	0.00578105
532.00000000	0.00466483
533.00000000	0.00426739
534.00000000	0.00417477
535.00000000	0.00421881
536.00000000	0.00351037
537.00000000	0.00333385
538.00000000	0.00276193
539.00000000	0.00314194
540.00000000	0.00318282
541.00000000	0.00233226
542.00000000	0.00185022
543.00000000	0.00204314
544.00000000	0.00181891
545.00000000	0.00165935
546.00000000	0.00125521
547.00000000	0.00197136
548.00000000	0.00155734
549.00000000	0.00078955
550.00000000	0.00121726
551.00000000	0.00138793
552.00000000	0.00093494
553.00000000	0.00095321
554.00000000	0.00070795
555.00000000	0.00069028
556.00000000	0.00086045
557.00000000	0.00106592
558.00000000	0.00084226
559.00000000	0.00088622
560.00000000	0.00123097
561.00000000	0.00113149
562.00000000	0.00131942
563.00000000	0.00071787
564.00000000	0.00066797
565.00000000	0.00038327
566.00000000	0.00054457
567.00000000	0.00062934
568.00000000	0.00070536
569.00000000	0.00061104
570.00000000	0.00029265
571.00000000	0.00014069
572.00000000	0.00002458
573.00000000	0.00005314
574.00000000	0.00008640
575.00000000	0.00018302
576.00000000	0.00065413
577.00000000	0.00001509
578.00000000	0.00092626
579.00000000	0.00123564
580.00000000	0.00083076
581.00000000	0.00041571
582.00000000	0.00020485
583.00000000	0.00056859
584.00000000	0.00013586
585.00000000	0.00072663
586.00000000	0.00019516
587.00000000	0.00000000
588.00000000	0.00020143
589.00000000	0.00054694
590.00000000	0.00070165
591.00000000	0.00016383
592.00000000	0.00000510
593.00000000	0.00000000
594.00000000	0.00006790
595.00000000	0.00000001
596.00000000	0.00022769
597.00000000	0.00006074
598.00000000	0.00019325
599.00000000	0.00016604
600.00000000	0.00034689
601.00000000	0.00021239
602.00000000	0.00000000
603.00000000	0.00000000
604.00000000	0.00001671
605.00000000	0.00009657
606.00000000	0.00000001
607.00000000	0.00013177
608.00000000	0.00000000
609.00000000	0.00000180
610.00000000	0.00000000
611.00000000	0.00000000
612.00000000	0.00000000
613.00000000	0.00000000
614.00000000	0.00000000
615.00000000	0.00005344
616.00000000	0.00000000
617.00000000	0.00000055
618.00000000	0.00000000
619.00000000	0.00053092
620.00000000	0.00065932
621.00000000	0.00017058
622.00000000	0.00000018
623.00000000	0.00022217
624.00000000	0.00019112
625.00000000	0.00000000
626.00000000	0.00048088
627.00000000	0.00000305
628.00000000	0.00000000
629.00000000	0.00000000
630.00000000	0.00031526
631.00000000	0.00024978
632.00000000	0.00036534
633.00000000	0.00091944
634.00000000	0.00016543
635.00000000	0.00000057
636.00000000	0.00000000
637.00000000	0.00004293
638.00000000	0.00000635
639.00000000	0.00000000
640.00000000	0.00000000
641.00000000	0.00000000
642.00000000	0.00005970
643.00000000	0.00000000
644.00000000	0.00000000
645.00000000	0.00042190
646.00000000	0.00000000
647.00000000	0.00004356
648.00000000	0.00119179
649.00000000	0.00000000
650.00000000	0.00000551
651.00000000	0.00010012
652.00000000	0.00011303
653.00000000	0.00001543
654.00000000	0.00028253
655.00000000	0.00000558
656.00000000	0.00011565
657.00000000	0.00000000
658.00000000	0.00000000
659.00000000	0.00000000
660.00000000	0.00047016
661.00000000	0.00000000
662.00000000	0.00000000
663.00000000	0.00003042
664.00000000	0.00012140
665.00000000	0.00000000
666.00000000	0.00017199
667.00000000	0.00017323
668.00000000	0.00000254
669.00000000	0.00000000
670.00000000	0.00092439
671.00000000	0.00000569
672.00000000	0.00003540
673.00000000	0.00000000
674.00000000	0.00000000
675.00000000	0.00141242
676.00000000	0.00000000
677.00000000	0.00000000
678.00000000	0.00000000
679.00000000	0.00007793
680.00000000	0.00179270
681.00000000	0.00000000
682.00000000	0.00000035
683.00000000	0.00017607
684.00000000	0.00030212
685.00000000	0.00040579
686.00000000	0.00000000
687.00000000	0.00048356
688.00000000	0.00000000
689.00000000	0.00000000
690.00000000	0.00000000
691.00000000	0.00000000
692.00000000	0.00000000
693.00000000	0.00000000
694.00000000	0.00000000
695.00000000	0.00000000
696.00000000	0.00035334
697.00000000	0.00066045
698.00000000	0.00000000
699.00000000	0.00026179
700.00000000	0.00000000
701.00000000	0.00046688
702.00000000	0.00000000
703.00000000	0.00000000
704.00000000	0.00000000
705.00000000	0.00000000
706.00000000	0.00000000
707.00000000	0.00001127
708.00000000	0.00000625
709.00000000	0.00000000
710.00000000	0.00000000
711.00000000	0.00000000
712.00000000	0.00000072
713.00000000	0.00024624
714.00000000	0.00000000
715.00000000	0.00000000
716.00000000	0.00004299
717.00000000	0.00029392
718.00000000	0.00000000
719.00000000	0.00048300
720.00000000	0.00018385
721.00000000	0.00000000
722.00000000	0.00027016
723.00000000	0.00000000
724.00000000	0.00000000
725.00000000	0.00001102
726.00000000	0.00000000
727.00000000	0.00039104
728.00000000	0.00000000
729.00000000	0.00017131
730.00000000	0.00000000
731.00000000	0.00083356
732.00000000	0.00000000
733.00000000	0.00021630
734.00000000	0.00000000
735.00000000	0.00001078
736.00000000	0.00005062
737.00000000	0.00015146
738.00000000	0.00000000
739.00000000	0.00000000
740.00000000	0.00099574
741.00000000	0.00000000
742.00000000	0.00028813
743.00000000	0.00000000
744.00000000	0.00000000
745.00000000	0.00000000
746.00000000	0.00036081
747.00000000	0.00000000
748.00000000	0.00000000
749.00000000	0.00000000
750.00000000	0.00000000
751.00000000	0.00005844
752.00000000	0.00030959
753.00000000	0.00000000
754.00000000	0.00008861
755.00000000	0.00000143
756.00000000	0.00042605
757.00000000	0.00025233
758.00000000	0.00103494
759.00000000	0.00009105
760.00000000	0.00104256
761.00000000	0.00002603
762.00000000	0.00044473
763.00000000	0.00000000
764.00000000	0.00000000
765.00000000	0.00000000
766.00000000	0.00034586
767.00000000	0.00035507
768.00000000	0.00017139
769.00000000	0.00037171
770.00000000	0.00010312
771.00000000	0.00085059
772.00000000	0.00007974
773.00000000	0.00000000
774.00000000	0.00000000
775.00000000	0.00000000
776.00000000	0.00301107
777.00000000	0.00000000
778.00000000	0.00000000
779.00000000	0.00000000
780.00000000	0.00155535
781.00000000	0.00026548
782.00000000	0.00005738
783.00000000	0.00000000
784.00000000	0.00002554
785.00000000	0.00000000
786.00000000	0.00000000
787.00000000	0.00007404
788.00000000	0.00008658
789.00000000	0.00000000
790.00000000	0.00000000
791.00000000	0.00048295
792.00000000	0.00000000
793.00000000	0.00000000
794.00000000	0.00000000
795.00000000	0.00137502
796.00000000	0.00266326
797.00000000	0.00008210
798.00000000	0.00000000
799.00000000	0.00287222
800.00000000	0.00000000
801.00000000	0.00000000
802.00000000	0.00000000
803.00000000	0.00000000
804.00000000	0.00000000
805.00000000	0.00000000
806.00000000	0.00000000
807.00000000	0.00046116
808.00000000	0.00000000
809.00000000	0.00000000
810.00000000	0.00000000
811.00000000	0.00067347
812.00000000	0.00081861
813.00000000	0.00000000
814.00000000	0.00065938
815.00000000	0.00013971
816.00000000	0.00000000
817.00000000	0.00000000
818.00000000	0.00000000
819.00000000	0.00282574
820.00000000	0.00000000
821.00000000	0.00000000
822.00000000	0.00000000
823.00000000	0.00000000
824.00000000	0.00000419
825.00000000	0.00375927
826.00000000	0.00170846
827.00000000	0.00000000
828.00000000	0.00000000
829.00000000	0.00080435
830.00000000	0.00031500
831.00000000	0.00128970
832.00000000	0.00000000
833.00000000	0.00000000
834.00000000	0.00000000
835.00000000	0.00000000
836.00000000	0.00181401
837.00000000	0.00000000
838.00000000	0.00106526
839.00000000	0.00000000
840.00000000	0.00000000
841.00000000	0.00175706
842.00000000	0.00000000
843.00000000	0.00154396
844.00000000	0.00065319
845.00000000	0.00000000
846.00000000	0.00000000
847.00000000	0.00308597
848.00000000	0.00014548
849.00000000	0.00000000
850.00000000	0.00000000
851.00000000	0.00000000
852.00000000	0.00000000
853.00000000	0.00000007
854.00000000	0.00355787
855.00000000	0.00000000
856.00000000	0.00000000
857.00000000	0.00000000
858.00000000	0.00071556
859.00000000	0.00000000
860.00000000	0.00000061
861.00000000	0.00000000
862.00000000	0.00000000
863.00000000	0.00000000
864.00000000	0.00229879
865.00000000	0.00048760
866.00000000	0.00000000
867.00000000	0.00000000
868.00000000	0.00000000
869.00000000	0.00025512
870.00000000	0.00000000
871.00000000	0.00160291
872.00000000	0.00000000
873.00000000	0.00000000
874.00000000	0.00000000
875.00000000	0.00000000
876.00000000	0.00000000
877.00000000	0.00000000
878.00000000	0.00000000
879.00000000	0.00443120
880.00000000	0.00000000
881.00000000	0.00067645
882.00000000	0.00155580
883.00000000	0.00000000
884.00000000	0.00000000
885.00000000	0.00000000
886.00000000	0.00000000
887.00000000	0.00013058
888.00000000	0.00000000
889.00000000	0.00001116
890.00000000	0.00000000
891.00000000	0.00000000
892.00000000	0.00016243
893.00000000	0.00269497
894.00000000	0.00000000
895.00000000	0.00000000
896.00000000	0.00000000
897.00000000	0.00000805
898.00000000	0.00059763
899.00000000	0.00000000
900.00000000	0.00000000
