#LICA Lamps Spectra Database
#Website 1: https://guaix.fis.ucm.es/lamps_spectra
#Website 2: http://carlostapia.es/lamparas/lamps.html
#Latest update: 2018/04/18
#Tester: Carlos Eugenio Tapia Ayuga
#Correct for Electrical Dark: Yes (JAZA2310)
#Correct for Detector Non-linearity: Yes (JAZA2310)
#Correct for Flux: Yes
#Start wavelength (nm): 300
#End wavelength (nm): 900
#Steps (nm):	1
#Locus: D65 sRGB Gamma 1 CIE1931
#XYZ coordinates: 0.7352	0.6522	0.1799
#xyY coordinates: 0.4691	0.4161	0.6522
#sRGB: 255	102	19
#CCT Lindbloom (K):	2618
#CCT McCamy (K):	2613
#CCT Hernández-Andrés (K):	2510
#Melatonin: 0.263
#Chlorophyll a: 0.218
#Chlorophyll b: 0.509
#Beta Carotene: 0.218
#Manufacturer: Ryet Ikea
#Luminance manufacturer: 200lm
#Other data: Ryet LED. 2700K. 2.2W
#Begin Processed Spectral Data
W	S
300.00000000	0.00000000
301.00000000	0.00000000
302.00000000	0.00000000
303.00000000	0.00000000
304.00000000	0.00000000
305.00000000	0.00000000
306.00000000	0.00000000
307.00000000	0.00000000
308.00000000	0.00000000
309.00000000	0.00000000
310.00000000	0.00000000
311.00000000	0.00000000
312.00000000	0.00000000
313.00000000	0.00000000
314.00000000	0.00000000
315.00000000	0.00000000
316.00000000	0.00000000
317.00000000	0.00000000
318.00000000	0.00000000
319.00000000	0.00022944
320.00000000	0.00000000
321.00000000	0.00003217
322.00000000	0.00004281
323.00000000	0.00000000
324.00000000	0.00000000
325.00000000	0.00000000
326.00000000	0.00000000
327.00000000	0.00000000
328.00000000	0.00000000
329.00000000	0.00000000
330.00000000	0.00000000
331.00000000	0.00085675
332.00000000	0.00000000
333.00000000	0.00015220
334.00000000	0.00000000
335.00000000	0.00000000
336.00000000	0.00000000
337.00000000	0.00009297
338.00000000	0.00108298
339.00000000	0.00021386
340.00000000	0.00000000
341.00000000	0.00062933
342.00000000	0.00000000
343.00000000	0.00000000
344.00000000	0.00000000
345.00000000	0.00000422
346.00000000	0.00000000
347.00000000	0.00000000
348.00000000	0.00000000
349.00000000	0.00000000
350.00000000	0.00000350
351.00000000	0.00000000
352.00000000	0.00038387
353.00000000	0.00000000
354.00000000	0.00020317
355.00000000	0.00000000
356.00000000	0.00000000
357.00000000	0.00000000
358.00000000	0.00000691
359.00000000	0.00000000
360.00000000	0.00000000
361.00000000	0.00002256
362.00000000	0.00000000
363.00000000	0.00003988
364.00000000	0.00000000
365.00000000	0.00000000
366.00000000	0.00000000
367.00000000	0.00000208
368.00000000	0.00001973
369.00000000	0.00012173
370.00000000	0.00000000
371.00000000	0.00080569
372.00000000	0.00000000
373.00000000	0.00000000
374.00000000	0.00015196
375.00000000	0.00000000
376.00000000	0.00000000
377.00000000	0.00000000
378.00000000	0.00000000
379.00000000	0.00000000
380.00000000	0.00020388
381.00000000	0.00008085
382.00000000	0.00027214
383.00000000	0.00008910
384.00000000	0.00000296
385.00000000	0.00007646
386.00000000	0.00000000
387.00000000	0.00000000
388.00000000	0.00005944
389.00000000	0.00000000
390.00000000	0.00049293
391.00000000	0.00038290
392.00000000	0.00001610
393.00000000	0.00000000
394.00000000	0.00000000
395.00000000	0.00009219
396.00000000	0.00056845
397.00000000	0.00000720
398.00000000	0.00000000
399.00000000	0.00000000
400.00000000	0.00026256
401.00000000	0.00089526
402.00000000	0.00004369
403.00000000	0.00004690
404.00000000	0.00001647
405.00000000	0.00072402
406.00000000	0.00081750
407.00000000	0.00004307
408.00000000	0.00073861
409.00000000	0.00005115
410.00000000	0.00007873
411.00000000	0.00134702
412.00000000	0.00170367
413.00000000	0.00099370
414.00000000	0.00163632
415.00000000	0.00249544
416.00000000	0.00333084
417.00000000	0.00393237
418.00000000	0.00416063
419.00000000	0.00473569
420.00000000	0.00584060
421.00000000	0.00699497
422.00000000	0.00667092
423.00000000	0.00914417
424.00000000	0.00981415
425.00000000	0.01095680
426.00000000	0.01252800
427.00000000	0.01475838
428.00000000	0.01637640
429.00000000	0.01852651
430.00000000	0.02037323
431.00000000	0.02325479
432.00000000	0.02583750
433.00000000	0.02913801
434.00000000	0.03348461
435.00000000	0.03909179
436.00000000	0.04325336
437.00000000	0.04931621
438.00000000	0.05629071
439.00000000	0.06547971
440.00000000	0.07444317
441.00000000	0.08611577
442.00000000	0.09871579
443.00000000	0.11596664
444.00000000	0.13277866
445.00000000	0.15513485
446.00000000	0.17654809
447.00000000	0.20016476
448.00000000	0.22827805
449.00000000	0.25973424
450.00000000	0.27519954
451.00000000	0.29313072
452.00000000	0.30887298
453.00000000	0.31702028
454.00000000	0.31650477
455.00000000	0.31118735
456.00000000	0.30295899
457.00000000	0.29046945
458.00000000	0.27691592
459.00000000	0.26965493
460.00000000	0.26097148
461.00000000	0.25067499
462.00000000	0.24558418
463.00000000	0.23911430
464.00000000	0.23931032
465.00000000	0.23728706
466.00000000	0.23393156
467.00000000	0.23093672
468.00000000	0.22970814
469.00000000	0.22118901
470.00000000	0.21380713
471.00000000	0.20880747
472.00000000	0.20137128
473.00000000	0.19396638
474.00000000	0.18669895
475.00000000	0.18443629
476.00000000	0.17767351
477.00000000	0.17444348
478.00000000	0.17243293
479.00000000	0.17320054
480.00000000	0.17461955
481.00000000	0.17618302
482.00000000	0.17699310
483.00000000	0.17998440
484.00000000	0.18317931
485.00000000	0.18896625
486.00000000	0.19304685
487.00000000	0.19581236
488.00000000	0.20005288
489.00000000	0.20524617
490.00000000	0.20842667
491.00000000	0.21301828
492.00000000	0.21907972
493.00000000	0.22522879
494.00000000	0.23094464
495.00000000	0.23560552
496.00000000	0.24391044
497.00000000	0.25274133
498.00000000	0.25857001
499.00000000	0.26552453
500.00000000	0.27248109
501.00000000	0.27952778
502.00000000	0.28620187
503.00000000	0.29507292
504.00000000	0.29947651
505.00000000	0.30464784
506.00000000	0.31139283
507.00000000	0.31658284
508.00000000	0.32261978
509.00000000	0.32888007
510.00000000	0.33472818
511.00000000	0.34205485
512.00000000	0.34758351
513.00000000	0.35266923
514.00000000	0.35771148
515.00000000	0.36424176
516.00000000	0.36678960
517.00000000	0.36964266
518.00000000	0.37294388
519.00000000	0.37602681
520.00000000	0.38005758
521.00000000	0.38285088
522.00000000	0.38820168
523.00000000	0.39256011
524.00000000	0.39792180
525.00000000	0.40043816
526.00000000	0.40605179
527.00000000	0.40989295
528.00000000	0.41463880
529.00000000	0.41789898
530.00000000	0.42107379
531.00000000	0.42232485
532.00000000	0.42717711
533.00000000	0.42946018
534.00000000	0.43265218
535.00000000	0.43814549
536.00000000	0.44135358
537.00000000	0.44402895
538.00000000	0.44901498
539.00000000	0.45387284
540.00000000	0.45686768
541.00000000	0.46577804
542.00000000	0.46896709
543.00000000	0.47426180
544.00000000	0.47516479
545.00000000	0.48250229
546.00000000	0.48545355
547.00000000	0.49080209
548.00000000	0.49825144
549.00000000	0.50035977
550.00000000	0.50703362
551.00000000	0.51674978
552.00000000	0.52300024
553.00000000	0.52904170
554.00000000	0.53506833
555.00000000	0.54135099
556.00000000	0.55173411
557.00000000	0.56044234
558.00000000	0.57249861
559.00000000	0.57933580
560.00000000	0.58777037
561.00000000	0.59967222
562.00000000	0.60438364
563.00000000	0.61219697
564.00000000	0.61988666
565.00000000	0.63021289
566.00000000	0.64084593
567.00000000	0.65109338
568.00000000	0.65771667
569.00000000	0.66964966
570.00000000	0.67378298
571.00000000	0.68556867
572.00000000	0.69800346
573.00000000	0.70456034
574.00000000	0.71291027
575.00000000	0.72376416
576.00000000	0.73437888
577.00000000	0.74510533
578.00000000	0.75803979
579.00000000	0.76714750
580.00000000	0.77662151
581.00000000	0.79046025
582.00000000	0.80054468
583.00000000	0.81499382
584.00000000	0.82961658
585.00000000	0.84339583
586.00000000	0.85434480
587.00000000	0.86585288
588.00000000	0.87449602
589.00000000	0.88322782
590.00000000	0.89248646
591.00000000	0.90311715
592.00000000	0.91243695
593.00000000	0.92034480
594.00000000	0.92628248
595.00000000	0.93733434
596.00000000	0.94350081
597.00000000	0.94961422
598.00000000	0.95697081
599.00000000	0.96722459
600.00000000	0.97821945
601.00000000	0.98190166
602.00000000	0.98881610
603.00000000	0.99660258
604.00000000	1.00000000
605.00000000	0.99426734
606.00000000	0.99659790
607.00000000	0.99400223
608.00000000	0.99463821
609.00000000	0.99007073
610.00000000	0.99213017
611.00000000	0.99337105
612.00000000	0.98861987
613.00000000	0.98744874
614.00000000	0.99115395
615.00000000	0.99519291
616.00000000	0.99038699
617.00000000	0.99266120
618.00000000	0.99870750
619.00000000	0.99379017
620.00000000	0.98963304
621.00000000	0.97823692
622.00000000	0.96936601
623.00000000	0.96485870
624.00000000	0.95832170
625.00000000	0.95004042
626.00000000	0.94317998
627.00000000	0.93344273
628.00000000	0.92730985
629.00000000	0.91179679
630.00000000	0.89975715
631.00000000	0.88972537
632.00000000	0.87403672
633.00000000	0.86308789
634.00000000	0.85763640
635.00000000	0.84591064
636.00000000	0.83147851
637.00000000	0.81738937
638.00000000	0.80890612
639.00000000	0.79244958
640.00000000	0.77868903
641.00000000	0.77039338
642.00000000	0.75738543
643.00000000	0.74409570
644.00000000	0.73298573
645.00000000	0.71757042
646.00000000	0.70723861
647.00000000	0.69104152
648.00000000	0.68206058
649.00000000	0.67243766
650.00000000	0.65473060
651.00000000	0.64463888
652.00000000	0.63343534
653.00000000	0.61765365
654.00000000	0.60455384
655.00000000	0.59399464
656.00000000	0.57689195
657.00000000	0.56663557
658.00000000	0.55345948
659.00000000	0.54164445
660.00000000	0.52736456
661.00000000	0.51966949
662.00000000	0.50682893
663.00000000	0.49318028
664.00000000	0.48522147
665.00000000	0.47024448
666.00000000	0.46001487
667.00000000	0.45023655
668.00000000	0.43731225
669.00000000	0.42992289
670.00000000	0.41958130
671.00000000	0.40853162
672.00000000	0.40213973
673.00000000	0.39209114
674.00000000	0.37936085
675.00000000	0.36903946
676.00000000	0.35903431
677.00000000	0.34947085
678.00000000	0.34097968
679.00000000	0.33269876
680.00000000	0.32514204
681.00000000	0.31435147
682.00000000	0.30593474
683.00000000	0.29782635
684.00000000	0.29072349
685.00000000	0.28332354
686.00000000	0.27424054
687.00000000	0.26623244
688.00000000	0.25976990
689.00000000	0.24915234
690.00000000	0.24399243
691.00000000	0.23906054
692.00000000	0.23513683
693.00000000	0.22563033
694.00000000	0.21829042
695.00000000	0.21382501
696.00000000	0.20669341
697.00000000	0.20038742
698.00000000	0.19468056
699.00000000	0.18776291
700.00000000	0.18569927
701.00000000	0.18151808
702.00000000	0.17609933
703.00000000	0.17102827
704.00000000	0.16580803
705.00000000	0.16050517
706.00000000	0.15449194
707.00000000	0.14767369
708.00000000	0.14482878
709.00000000	0.14399615
710.00000000	0.13717715
711.00000000	0.13403511
712.00000000	0.13212811
713.00000000	0.12365155
714.00000000	0.12200874
715.00000000	0.11680407
716.00000000	0.11213625
717.00000000	0.11029031
718.00000000	0.10856523
719.00000000	0.10364065
720.00000000	0.10038986
721.00000000	0.09824313
722.00000000	0.09683710
723.00000000	0.09255011
724.00000000	0.09157691
725.00000000	0.08809853
726.00000000	0.08396806
727.00000000	0.08285144
728.00000000	0.07907678
729.00000000	0.07653764
730.00000000	0.07568625
731.00000000	0.07369699
732.00000000	0.07317530
733.00000000	0.06798265
734.00000000	0.06792586
735.00000000	0.06300604
736.00000000	0.06100381
737.00000000	0.05839794
738.00000000	0.05745256
739.00000000	0.05613328
740.00000000	0.05392319
741.00000000	0.05358414
742.00000000	0.05123346
743.00000000	0.04788787
744.00000000	0.04756280
745.00000000	0.04645088
746.00000000	0.04382780
747.00000000	0.04272641
748.00000000	0.04144205
749.00000000	0.04137410
750.00000000	0.03851134
751.00000000	0.03544006
752.00000000	0.03502084
753.00000000	0.03495149
754.00000000	0.03505773
755.00000000	0.03214074
756.00000000	0.02959618
757.00000000	0.03199752
758.00000000	0.02862289
759.00000000	0.02888158
760.00000000	0.02779374
761.00000000	0.02649429
762.00000000	0.02749940
763.00000000	0.02570450
764.00000000	0.02219329
765.00000000	0.02241712
766.00000000	0.02239669
767.00000000	0.02117344
768.00000000	0.02047700
769.00000000	0.02143120
770.00000000	0.02045792
771.00000000	0.01881054
772.00000000	0.01868768
773.00000000	0.01789419
774.00000000	0.01773718
775.00000000	0.01659611
776.00000000	0.01887620
777.00000000	0.01709146
778.00000000	0.01740306
779.00000000	0.01561028
780.00000000	0.01183212
781.00000000	0.01333825
782.00000000	0.01398961
783.00000000	0.01204876
784.00000000	0.01151942
785.00000000	0.01291442
786.00000000	0.01119554
787.00000000	0.01126726
788.00000000	0.01016818
789.00000000	0.00814877
790.00000000	0.00793104
791.00000000	0.00994571
792.00000000	0.00505562
793.00000000	0.00851305
794.00000000	0.00592023
795.00000000	0.00870149
796.00000000	0.00767475
797.00000000	0.00666707
798.00000000	0.00773219
799.00000000	0.01034717
800.00000000	0.00764215
801.00000000	0.00496766
802.00000000	0.00545221
803.00000000	0.00410553
804.00000000	0.00531792
805.00000000	0.00491879
806.00000000	0.00386746
807.00000000	0.00379049
808.00000000	0.00602488
809.00000000	0.00119879
810.00000000	0.00446536
811.00000000	0.00285135
812.00000000	0.00195384
813.00000000	0.00368999
814.00000000	0.00382833
815.00000000	0.00241375
816.00000000	0.00430118
817.00000000	0.00193643
818.00000000	0.00247996
819.00000000	0.00086486
820.00000000	0.00254366
821.00000000	0.00156852
822.00000000	0.00295953
823.00000000	0.00139187
824.00000000	0.00404952
825.00000000	0.00093795
826.00000000	0.00170613
827.00000000	0.00026502
828.00000000	0.00266933
829.00000000	0.00000000
830.00000000	0.00475692
831.00000000	0.00325187
832.00000000	0.00280270
833.00000000	0.00000000
834.00000000	0.00125524
835.00000000	0.00000441
836.00000000	0.00162268
837.00000000	0.00033319
838.00000000	0.00019149
839.00000000	0.00000000
840.00000000	0.00258069
841.00000000	0.00007620
842.00000000	0.00000000
843.00000000	0.00222251
844.00000000	0.00000000
845.00000000	0.00000000
846.00000000	0.00259077
847.00000000	0.00000000
848.00000000	0.00000000
849.00000000	0.00111053
850.00000000	0.00000000
851.00000000	0.00000000
852.00000000	0.00000000
853.00000000	0.00000000
854.00000000	0.00019012
855.00000000	0.00083797
856.00000000	0.00371453
857.00000000	0.00000000
858.00000000	0.00000000
859.00000000	0.00090038
860.00000000	0.00000000
861.00000000	0.00000000
862.00000000	0.00000000
863.00000000	0.00093591
864.00000000	0.00000000
865.00000000	0.00000000
866.00000000	0.00000000
867.00000000	0.00160217
868.00000000	0.00041769
869.00000000	0.00000000
870.00000000	0.00000000
871.00000000	0.00032269
872.00000000	0.00000000
873.00000000	0.00000000
874.00000000	0.00033905
875.00000000	0.00102268
876.00000000	0.00000000
877.00000000	0.00000000
878.00000000	0.00000000
879.00000000	0.00000000
880.00000000	0.00000000
881.00000000	0.00000000
882.00000000	0.00000000
883.00000000	0.00000000
884.00000000	0.00001119
885.00000000	0.00000000
886.00000000	0.00000000
887.00000000	0.00000000
888.00000000	0.00000000
889.00000000	0.00000000
890.00000000	0.00000000
891.00000000	0.00000000
892.00000000	0.00000000
893.00000000	0.00000000
894.00000000	0.00000000
895.00000000	0.00000000
896.00000000	0.00000000
897.00000000	0.00000000
898.00000000	0.00000000
899.00000000	0.00003361
900.00000000	0.00000000
