#LICA Lamps Spectra Database
#Website 1: https://guaix.fis.ucm.es/lamps_spectra
#Website 2: http://carlostapia.es/lamparas/lamps.html
#Latest update: 2018/04/28
#Tester: Carlos Eugenio Tapia Ayuga
#Correct for Electrical Dark: Yes (JAZA2310)
#Correct for Detector Non-linearity: Yes (JAZA2310)
#Correct for Flux: Yes
#Start wavelength (nm): 300
#End wavelength (nm): 900
#Steps (nm):	1
#Locus: D65 sRGB Gamma 1 CIE1931
#XYZ coordinates: 0.3522	0.3674	0.4341
#xyY coordinates: 0.3053	0.3184	0.3674
#sRGB: 92	93	103
#CCT Lindbloom (K):	7043
#CCT McCamy (K):	7041
#CCT Hernández-Andrés (K):	7040
#Melatonin: 0.802
#Chlorophyll a: 0.133
#Chlorophyll b: 1.106
#Beta Carotene: 0.132
#Manufacturer: Deco LED
#Luminance manufacturer: Unknown
#Other data: Cool white.
#Begin Processed Spectral Data
W	S
300.00000000	0.00038356
301.00000000	0.00018632
302.00000000	0.00000000
303.00000000	0.00000000
304.00000000	0.00000000
305.00000000	0.00000000
306.00000000	0.00000000
307.00000000	0.00000000
308.00000000	0.00000000
309.00000000	0.00020689
310.00000000	0.00000000
311.00000000	0.00000000
312.00000000	0.00000000
313.00000000	0.00000000
314.00000000	0.00000000
315.00000000	0.00000000
316.00000000	0.00028165
317.00000000	0.00000000
318.00000000	0.00000000
319.00000000	0.00000000
320.00000000	0.00000000
321.00000000	0.00000000
322.00000000	0.00000000
323.00000000	0.00007860
324.00000000	0.00016875
325.00000000	0.00000000
326.00000000	0.00000000
327.00000000	0.00000000
328.00000000	0.00000000
329.00000000	0.00000000
330.00000000	0.00008397
331.00000000	0.00000000
332.00000000	0.00000000
333.00000000	0.00000000
334.00000000	0.00041091
335.00000000	0.00000000
336.00000000	0.00000000
337.00000000	0.00004867
338.00000000	0.00000000
339.00000000	0.00025451
340.00000000	0.00012330
341.00000000	0.00021259
342.00000000	0.00000000
343.00000000	0.00027695
344.00000000	0.00030416
345.00000000	0.00017375
346.00000000	0.00000582
347.00000000	0.00012052
348.00000000	0.00000000
349.00000000	0.00000000
350.00000000	0.00017661
351.00000000	0.00042856
352.00000000	0.00011329
353.00000000	0.00002613
354.00000000	0.00000759
355.00000000	0.00000000
356.00000000	0.00053638
357.00000000	0.00036174
358.00000000	0.00000000
359.00000000	0.00000237
360.00000000	0.00004040
361.00000000	0.00000000
362.00000000	0.00056368
363.00000000	0.00031414
364.00000000	0.00005788
365.00000000	0.00019730
366.00000000	0.00000000
367.00000000	0.00000000
368.00000000	0.00000116
369.00000000	0.00091242
370.00000000	0.00059159
371.00000000	0.00011659
372.00000000	0.00000000
373.00000000	0.00000000
374.00000000	0.00000000
375.00000000	0.00010561
376.00000000	0.00000148
377.00000000	0.00011792
378.00000000	0.00030945
379.00000000	0.00038946
380.00000000	0.00000000
381.00000000	0.00036009
382.00000000	0.00047407
383.00000000	0.00003242
384.00000000	0.00004557
385.00000000	0.00024161
386.00000000	0.00000000
387.00000000	0.00005595
388.00000000	0.00001509
389.00000000	0.00054252
390.00000000	0.00028890
391.00000000	0.00018879
392.00000000	0.00000421
393.00000000	0.00089722
394.00000000	0.00052918
395.00000000	0.00037935
396.00000000	0.00042839
397.00000000	0.00052880
398.00000000	0.00063912
399.00000000	0.00025111
400.00000000	0.00030291
401.00000000	0.00066541
402.00000000	0.00053355
403.00000000	0.00069010
404.00000000	0.00089772
405.00000000	0.00097076
406.00000000	0.00075699
407.00000000	0.00093080
408.00000000	0.00209285
409.00000000	0.00132784
410.00000000	0.00195517
411.00000000	0.00215591
412.00000000	0.00235266
413.00000000	0.00279324
414.00000000	0.00297999
415.00000000	0.00390576
416.00000000	0.00410178
417.00000000	0.00500849
418.00000000	0.00653349
419.00000000	0.00736466
420.00000000	0.00930143
421.00000000	0.01062528
422.00000000	0.01205316
423.00000000	0.01460812
424.00000000	0.01673687
425.00000000	0.02016098
426.00000000	0.02348655
427.00000000	0.02775262
428.00000000	0.03196720
429.00000000	0.03754255
430.00000000	0.04281676
431.00000000	0.04962275
432.00000000	0.05667663
433.00000000	0.06512922
434.00000000	0.07452389
435.00000000	0.08444572
436.00000000	0.09504578
437.00000000	0.10767217
438.00000000	0.12343731
439.00000000	0.14027072
440.00000000	0.15678206
441.00000000	0.17829169
442.00000000	0.19917822
443.00000000	0.22777106
444.00000000	0.25330557
445.00000000	0.28712784
446.00000000	0.32207014
447.00000000	0.36417516
448.00000000	0.41200854
449.00000000	0.47831086
450.00000000	0.51563273
451.00000000	0.57866864
452.00000000	0.64547737
453.00000000	0.71013077
454.00000000	0.76972081
455.00000000	0.82759792
456.00000000	0.87764347
457.00000000	0.91833521
458.00000000	0.95460008
459.00000000	0.98488823
460.00000000	1.00000000
461.00000000	0.99828685
462.00000000	0.98802280
463.00000000	0.95536101
464.00000000	0.93638565
465.00000000	0.89429981
466.00000000	0.83974183
467.00000000	0.79483749
468.00000000	0.74773365
469.00000000	0.68993686
470.00000000	0.64320193
471.00000000	0.60725968
472.00000000	0.56903183
473.00000000	0.53612953
474.00000000	0.51143885
475.00000000	0.49049425
476.00000000	0.46529135
477.00000000	0.44596202
478.00000000	0.42137903
479.00000000	0.40544168
480.00000000	0.38648310
481.00000000	0.36993877
482.00000000	0.34625513
483.00000000	0.32707648
484.00000000	0.30948452
485.00000000	0.29323062
486.00000000	0.28059477
487.00000000	0.26362928
488.00000000	0.25048327
489.00000000	0.24134287
490.00000000	0.23306839
491.00000000	0.22385573
492.00000000	0.21822041
493.00000000	0.21344202
494.00000000	0.21082761
495.00000000	0.20669902
496.00000000	0.20542222
497.00000000	0.20531148
498.00000000	0.20331833
499.00000000	0.20405323
500.00000000	0.20287059
501.00000000	0.20482749
502.00000000	0.20558146
503.00000000	0.20907370
504.00000000	0.21071498
505.00000000	0.21453950
506.00000000	0.21817209
507.00000000	0.22239308
508.00000000	0.22825812
509.00000000	0.23404651
510.00000000	0.23950295
511.00000000	0.24757430
512.00000000	0.25486952
513.00000000	0.26069357
514.00000000	0.26735666
515.00000000	0.27541778
516.00000000	0.28106140
517.00000000	0.28651637
518.00000000	0.29186984
519.00000000	0.29669863
520.00000000	0.30419285
521.00000000	0.30896024
522.00000000	0.31562253
523.00000000	0.32099884
524.00000000	0.32871073
525.00000000	0.33336527
526.00000000	0.33830927
527.00000000	0.34303567
528.00000000	0.34719273
529.00000000	0.35358909
530.00000000	0.35700333
531.00000000	0.35938286
532.00000000	0.36444226
533.00000000	0.36550328
534.00000000	0.36749875
535.00000000	0.37250398
536.00000000	0.37482513
537.00000000	0.37568373
538.00000000	0.37968211
539.00000000	0.38108523
540.00000000	0.38412056
541.00000000	0.38757192
542.00000000	0.38733819
543.00000000	0.39016228
544.00000000	0.38951291
545.00000000	0.39284920
546.00000000	0.39058372
547.00000000	0.39092246
548.00000000	0.39383111
549.00000000	0.39354113
550.00000000	0.39417555
551.00000000	0.39633256
552.00000000	0.39723789
553.00000000	0.39687153
554.00000000	0.39737881
555.00000000	0.39715595
556.00000000	0.39975373
557.00000000	0.39958087
558.00000000	0.40153425
559.00000000	0.40098258
560.00000000	0.40222601
561.00000000	0.40400118
562.00000000	0.40126353
563.00000000	0.39890420
564.00000000	0.39726898
565.00000000	0.39518459
566.00000000	0.39720213
567.00000000	0.39743987
568.00000000	0.39457145
569.00000000	0.39273712
570.00000000	0.39109218
571.00000000	0.38915530
572.00000000	0.38997187
573.00000000	0.38832234
574.00000000	0.38523817
575.00000000	0.38372244
576.00000000	0.38179012
577.00000000	0.38135315
578.00000000	0.38076322
579.00000000	0.37725458
580.00000000	0.37500843
581.00000000	0.37437471
582.00000000	0.37306656
583.00000000	0.37264596
584.00000000	0.37211100
585.00000000	0.37315305
586.00000000	0.36950443
587.00000000	0.37002739
588.00000000	0.36572160
589.00000000	0.36269329
590.00000000	0.35913348
591.00000000	0.35666033
592.00000000	0.35464267
593.00000000	0.35182998
594.00000000	0.34805968
595.00000000	0.34651602
596.00000000	0.34161796
597.00000000	0.33894599
598.00000000	0.33760105
599.00000000	0.33546374
600.00000000	0.33216656
601.00000000	0.32863703
602.00000000	0.32657731
603.00000000	0.32397375
604.00000000	0.32018182
605.00000000	0.31465373
606.00000000	0.31147159
607.00000000	0.30599418
608.00000000	0.30368468
609.00000000	0.29893260
610.00000000	0.29561195
611.00000000	0.29180775
612.00000000	0.28730375
613.00000000	0.28535245
614.00000000	0.28364736
615.00000000	0.28189651
616.00000000	0.27968482
617.00000000	0.27655509
618.00000000	0.27568554
619.00000000	0.27034361
620.00000000	0.26879378
621.00000000	0.26371604
622.00000000	0.25959047
623.00000000	0.25588225
624.00000000	0.25260794
625.00000000	0.24923212
626.00000000	0.24631839
627.00000000	0.24217242
628.00000000	0.23936343
629.00000000	0.23632634
630.00000000	0.23226957
631.00000000	0.22819570
632.00000000	0.22439397
633.00000000	0.22155450
634.00000000	0.21834036
635.00000000	0.21470062
636.00000000	0.21050387
637.00000000	0.20689159
638.00000000	0.20401861
639.00000000	0.20006841
640.00000000	0.19750049
641.00000000	0.19339500
642.00000000	0.19135478
643.00000000	0.18613314
644.00000000	0.18479524
645.00000000	0.18150607
646.00000000	0.17790135
647.00000000	0.17459723
648.00000000	0.17007739
649.00000000	0.16970121
650.00000000	0.16423859
651.00000000	0.16172011
652.00000000	0.15921009
653.00000000	0.15607872
654.00000000	0.15324022
655.00000000	0.14916694
656.00000000	0.14690763
657.00000000	0.14334410
658.00000000	0.13914390
659.00000000	0.13765156
660.00000000	0.13445390
661.00000000	0.13201392
662.00000000	0.12978673
663.00000000	0.12749086
664.00000000	0.12389380
665.00000000	0.12128698
666.00000000	0.11835978
667.00000000	0.11674573
668.00000000	0.11348309
669.00000000	0.11150326
670.00000000	0.10946731
671.00000000	0.10744096
672.00000000	0.10418002
673.00000000	0.10313808
674.00000000	0.10072322
675.00000000	0.09872771
676.00000000	0.09618109
677.00000000	0.09382866
678.00000000	0.09063292
679.00000000	0.09025162
680.00000000	0.08835731
681.00000000	0.08520564
682.00000000	0.08388839
683.00000000	0.08251656
684.00000000	0.07977928
685.00000000	0.07895432
686.00000000	0.07627574
687.00000000	0.07550806
688.00000000	0.07295250
689.00000000	0.07038904
690.00000000	0.06991106
691.00000000	0.06756908
692.00000000	0.06741643
693.00000000	0.06520391
694.00000000	0.06279484
695.00000000	0.06172729
696.00000000	0.06032525
697.00000000	0.05977017
698.00000000	0.05803740
699.00000000	0.05649213
700.00000000	0.05556736
701.00000000	0.05501787
702.00000000	0.05348044
703.00000000	0.05124527
704.00000000	0.05046828
705.00000000	0.04975233
706.00000000	0.04844555
707.00000000	0.04716849
708.00000000	0.04541049
709.00000000	0.04511829
710.00000000	0.04416200
711.00000000	0.04272453
712.00000000	0.04102957
713.00000000	0.04142650
714.00000000	0.04031202
715.00000000	0.03901798
716.00000000	0.03960052
717.00000000	0.03726122
718.00000000	0.03677570
719.00000000	0.03569081
720.00000000	0.03441363
721.00000000	0.03393255
722.00000000	0.03332655
723.00000000	0.03265133
724.00000000	0.03136435
725.00000000	0.03054519
726.00000000	0.02923324
727.00000000	0.02949877
728.00000000	0.02798089
729.00000000	0.02730529
730.00000000	0.02689303
731.00000000	0.02639903
732.00000000	0.02641370
733.00000000	0.02561789
734.00000000	0.02504865
735.00000000	0.02483688
736.00000000	0.02300531
737.00000000	0.02290483
738.00000000	0.02162619
739.00000000	0.02180409
740.00000000	0.02140457
741.00000000	0.02142932
742.00000000	0.02064658
743.00000000	0.02037264
744.00000000	0.01868039
745.00000000	0.01799686
746.00000000	0.01797723
747.00000000	0.01764765
748.00000000	0.01763324
749.00000000	0.01644839
750.00000000	0.01631891
751.00000000	0.01539966
752.00000000	0.01535079
753.00000000	0.01396311
754.00000000	0.01397329
755.00000000	0.01350742
756.00000000	0.01336357
757.00000000	0.01326202
758.00000000	0.01302467
759.00000000	0.01301079
760.00000000	0.01232475
761.00000000	0.01336314
762.00000000	0.01123963
763.00000000	0.01262603
764.00000000	0.01204383
765.00000000	0.01035354
766.00000000	0.01101538
767.00000000	0.01020438
768.00000000	0.01116769
769.00000000	0.00960893
770.00000000	0.00962657
771.00000000	0.00914546
772.00000000	0.00821824
773.00000000	0.00861422
774.00000000	0.00742847
775.00000000	0.00857177
776.00000000	0.00824224
777.00000000	0.00667792
778.00000000	0.00770924
779.00000000	0.00702581
780.00000000	0.00672151
781.00000000	0.00698646
782.00000000	0.00530427
783.00000000	0.00694724
784.00000000	0.00623345
785.00000000	0.00752219
786.00000000	0.00556806
787.00000000	0.00630035
788.00000000	0.00609161
789.00000000	0.00577762
790.00000000	0.00672682
791.00000000	0.00398101
792.00000000	0.00527749
793.00000000	0.00525927
794.00000000	0.00409522
795.00000000	0.00461625
796.00000000	0.00424852
797.00000000	0.00448356
798.00000000	0.00370610
799.00000000	0.00421383
800.00000000	0.00374067
801.00000000	0.00337667
802.00000000	0.00346055
803.00000000	0.00337061
804.00000000	0.00224174
805.00000000	0.00285229
806.00000000	0.00411044
807.00000000	0.00295953
808.00000000	0.00312786
809.00000000	0.00158557
810.00000000	0.00358987
811.00000000	0.00186435
812.00000000	0.00308294
813.00000000	0.00123098
814.00000000	0.00202883
815.00000000	0.00390764
816.00000000	0.00186480
817.00000000	0.00305015
818.00000000	0.00081530
819.00000000	0.00160639
820.00000000	0.00202995
821.00000000	0.00045176
822.00000000	0.00164900
823.00000000	0.00016293
824.00000000	0.00021969
825.00000000	0.00032130
826.00000000	0.00000649
827.00000000	0.00147668
828.00000000	0.00000000
829.00000000	0.00081880
830.00000000	0.00000000
831.00000000	0.00002813
832.00000000	0.00000000
833.00000000	0.00065573
834.00000000	0.00145327
835.00000000	0.00000477
836.00000000	0.00015976
837.00000000	0.00204271
838.00000000	0.00033959
839.00000000	0.00000000
840.00000000	0.00000000
841.00000000	0.00007161
842.00000000	0.00000000
843.00000000	0.00000000
844.00000000	0.00000000
845.00000000	0.00019957
846.00000000	0.00000000
847.00000000	0.00000000
848.00000000	0.00000000
849.00000000	0.00027778
850.00000000	0.00000000
851.00000000	0.00017941
852.00000000	0.00000000
853.00000000	0.00000000
854.00000000	0.00000000
855.00000000	0.00000000
856.00000000	0.00000000
857.00000000	0.00000000
858.00000000	0.00027762
859.00000000	0.00000000
860.00000000	0.00000000
861.00000000	0.00122449
862.00000000	0.00000000
863.00000000	0.00000000
864.00000000	0.00000000
865.00000000	0.00000000
866.00000000	0.00000000
867.00000000	0.00000024
868.00000000	0.00000000
869.00000000	0.00000000
870.00000000	0.00056309
871.00000000	0.00000000
872.00000000	0.00000000
873.00000000	0.00000000
874.00000000	0.00000000
875.00000000	0.00000000
876.00000000	0.00000000
877.00000000	0.00000000
878.00000000	0.00000000
879.00000000	0.00000000
880.00000000	0.00000000
881.00000000	0.00000000
882.00000000	0.00000000
883.00000000	0.00000000
884.00000000	0.00266719
885.00000000	0.00000000
886.00000000	0.00000000
887.00000000	0.00000000
888.00000000	0.00000000
889.00000000	0.00000000
890.00000000	0.00000000
891.00000000	0.00000000
892.00000000	0.00000000
893.00000000	0.00000000
894.00000000	0.00000000
895.00000000	0.00000000
896.00000000	0.00000000
897.00000000	0.00000000
898.00000000	0.00000000
899.00000000	0.00000000
900.00000000	0.00000000
