#LICA Lamps Spectra Database
#Website 1: https://guaix.fis.ucm.es/lamps_spectra
#Website 2: http://carlostapia.es/lamparas/lamps.html
#Latest update: 2017/12/17
#Tester: Carlos Eugenio Tapia Ayuga
#Correct for Electrical Dark: Yes (JAZA2310)
#Correct for Detector Non-linearity: Yes (JAZA2310)
#Correct for Flux: Yes
#Start wavelength (nm): 300
#End wavelength (nm): 900
#Steps (nm):	1
#Locus: D65 sRGB Gamma 1 CIE1931
#XYZ coordinates: 0.7549	0.6893	0.2475
#xyY coordinates: 0.4462	0.4075	0.6893
#sRGB: 255	115	33
#CCT Lindbloom (K):	2877
#CCT McCamy (K):	2879
#CCT Hernández-Andrés (K):	2814
#Melatonin: 0.313
#Chlorophyll a: 0.159
#Chlorophyll b: 0.557
#Beta Carotene: 0.160
#Manufacturer: Prilux
#Luminance manufacturer: 480lm
#Other data: Prilux Basic esSENSE BALL. 3000K. 5W
#Begin Processed Spectral Data
W	S
300.00000000	0.00000000
301.00000000	0.00000000
302.00000000	0.00099020
303.00000000	0.00591126
304.00000000	0.00000000
305.00000000	0.00042089
306.00000000	0.00412782
307.00000000	0.00000000
308.00000000	0.00000000
309.00000000	0.00016540
310.00000000	0.00000000
311.00000000	0.00000000
312.00000000	0.00379974
313.00000000	0.00000000
314.00000000	0.00020959
315.00000000	0.00000000
316.00000000	0.00095356
317.00000000	0.00416898
318.00000000	0.00243616
319.00000000	0.00103827
320.00000000	0.00000000
321.00000000	0.00413343
322.00000000	0.01196537
323.00000000	0.00000877
324.00000000	0.00432685
325.00000000	0.00000000
326.00000000	0.00000000
327.00000000	0.00001204
328.00000000	0.00230824
329.00000000	0.00000000
330.00000000	0.00000000
331.00000000	0.00000000
332.00000000	0.00156394
333.00000000	0.00000000
334.00000000	0.00024066
335.00000000	0.00572965
336.00000000	0.00000000
337.00000000	0.00013028
338.00000000	0.00000000
339.00000000	0.00336482
340.00000000	0.00000426
341.00000000	0.00000105
342.00000000	0.00000000
343.00000000	0.00000000
344.00000000	0.00000000
345.00000000	0.00000000
346.00000000	0.00228340
347.00000000	0.00037050
348.00000000	0.00000000
349.00000000	0.00163332
350.00000000	0.00000649
351.00000000	0.00022248
352.00000000	0.00086067
353.00000000	0.00000000
354.00000000	0.00002739
355.00000000	0.00015025
356.00000000	0.00187379
357.00000000	0.00000000
358.00000000	0.00000000
359.00000000	0.00074009
360.00000000	0.00017239
361.00000000	0.00270868
362.00000000	0.00000000
363.00000000	0.00059190
364.00000000	0.00155135
365.00000000	0.00116921
366.00000000	0.00116834
367.00000000	0.00225427
368.00000000	0.00007203
369.00000000	0.00000000
370.00000000	0.00084410
371.00000000	0.00122097
372.00000000	0.00001869
373.00000000	0.00132360
374.00000000	0.00272177
375.00000000	0.00018511
376.00000000	0.00000000
377.00000000	0.00134814
378.00000000	0.00049593
379.00000000	0.00000000
380.00000000	0.00000032
381.00000000	0.00000000
382.00000000	0.00090431
383.00000000	0.00066804
384.00000000	0.00145211
385.00000000	0.00000209
386.00000000	0.00098562
387.00000000	0.00003158
388.00000000	0.00274187
389.00000000	0.00191261
390.00000000	0.00022302
391.00000000	0.00149895
392.00000000	0.00000000
393.00000000	0.00090597
394.00000000	0.00000000
395.00000000	0.00078628
396.00000000	0.00004195
397.00000000	0.00039023
398.00000000	0.00060107
399.00000000	0.00070555
400.00000000	0.00000000
401.00000000	0.00089755
402.00000000	0.00033158
403.00000000	0.00039958
404.00000000	0.00000000
405.00000000	0.00383539
406.00000000	0.00033648
407.00000000	0.00006453
408.00000000	0.00006327
409.00000000	0.00075651
410.00000000	0.00286978
411.00000000	0.00426029
412.00000000	0.00559802
413.00000000	0.00670406
414.00000000	0.00569406
415.00000000	0.00774864
416.00000000	0.00865771
417.00000000	0.01217033
418.00000000	0.01244019
419.00000000	0.01308844
420.00000000	0.02096090
421.00000000	0.02367691
422.00000000	0.02261536
423.00000000	0.03388128
424.00000000	0.03219731
425.00000000	0.03870918
426.00000000	0.04597971
427.00000000	0.04968171
428.00000000	0.05752579
429.00000000	0.06738204
430.00000000	0.07905427
431.00000000	0.08629858
432.00000000	0.09489796
433.00000000	0.11237751
434.00000000	0.12902369
435.00000000	0.14098918
436.00000000	0.16301445
437.00000000	0.17975420
438.00000000	0.20543389
439.00000000	0.23927917
440.00000000	0.26911330
441.00000000	0.29250394
442.00000000	0.31880284
443.00000000	0.36169978
444.00000000	0.38184791
445.00000000	0.40731042
446.00000000	0.43296623
447.00000000	0.44503190
448.00000000	0.45310734
449.00000000	0.46085071
450.00000000	0.44681109
451.00000000	0.44235579
452.00000000	0.41617191
453.00000000	0.39203072
454.00000000	0.36694784
455.00000000	0.35011659
456.00000000	0.32212226
457.00000000	0.30713899
458.00000000	0.29136229
459.00000000	0.27767935
460.00000000	0.26579853
461.00000000	0.26629990
462.00000000	0.25812865
463.00000000	0.23884010
464.00000000	0.23295598
465.00000000	0.22743206
466.00000000	0.21267790
467.00000000	0.20268979
468.00000000	0.19331812
469.00000000	0.18247439
470.00000000	0.17761456
471.00000000	0.17128478
472.00000000	0.16720303
473.00000000	0.15874387
474.00000000	0.14883180
475.00000000	0.15104355
476.00000000	0.14835449
477.00000000	0.14707768
478.00000000	0.14444483
479.00000000	0.14845718
480.00000000	0.14900218
481.00000000	0.15241073
482.00000000	0.15446558
483.00000000	0.15734046
484.00000000	0.16287436
485.00000000	0.16685522
486.00000000	0.16997688
487.00000000	0.17365538
488.00000000	0.18181216
489.00000000	0.18242638
490.00000000	0.19157892
491.00000000	0.20007093
492.00000000	0.20718157
493.00000000	0.22031968
494.00000000	0.22465732
495.00000000	0.23457683
496.00000000	0.24414095
497.00000000	0.25152167
498.00000000	0.26240382
499.00000000	0.27132336
500.00000000	0.27784639
501.00000000	0.29308917
502.00000000	0.30043331
503.00000000	0.31132401
504.00000000	0.31778374
505.00000000	0.33011248
506.00000000	0.33513397
507.00000000	0.34889908
508.00000000	0.35501349
509.00000000	0.36428356
510.00000000	0.36866915
511.00000000	0.38388543
512.00000000	0.39294310
513.00000000	0.39319483
514.00000000	0.41155708
515.00000000	0.41906639
516.00000000	0.42285852
517.00000000	0.42690461
518.00000000	0.43881125
519.00000000	0.43842427
520.00000000	0.44479316
521.00000000	0.44897484
522.00000000	0.45321416
523.00000000	0.45987859
524.00000000	0.47180153
525.00000000	0.47227380
526.00000000	0.48096505
527.00000000	0.48651306
528.00000000	0.48416313
529.00000000	0.49301086
530.00000000	0.49657445
531.00000000	0.50169345
532.00000000	0.49812943
533.00000000	0.50294407
534.00000000	0.50848362
535.00000000	0.51093901
536.00000000	0.51529673
537.00000000	0.52265074
538.00000000	0.52610775
539.00000000	0.52529720
540.00000000	0.52911409
541.00000000	0.54077516
542.00000000	0.54540165
543.00000000	0.55432696
544.00000000	0.54758725
545.00000000	0.55245137
546.00000000	0.55629944
547.00000000	0.56314971
548.00000000	0.56625033
549.00000000	0.56804553
550.00000000	0.57817118
551.00000000	0.58278658
552.00000000	0.58562636
553.00000000	0.59475159
554.00000000	0.59957079
555.00000000	0.61373290
556.00000000	0.61590787
557.00000000	0.62768867
558.00000000	0.63828383
559.00000000	0.64400357
560.00000000	0.64449229
561.00000000	0.65334251
562.00000000	0.65897222
563.00000000	0.66681008
564.00000000	0.66951281
565.00000000	0.67952072
566.00000000	0.69290554
567.00000000	0.69400462
568.00000000	0.70213092
569.00000000	0.71585968
570.00000000	0.70676369
571.00000000	0.72824425
572.00000000	0.73685582
573.00000000	0.74593349
574.00000000	0.75782880
575.00000000	0.75974806
576.00000000	0.77544933
577.00000000	0.79095513
578.00000000	0.79311383
579.00000000	0.79965738
580.00000000	0.80840534
581.00000000	0.82482377
582.00000000	0.83733604
583.00000000	0.84417548
584.00000000	0.87078164
585.00000000	0.87864139
586.00000000	0.88576343
587.00000000	0.90109687
588.00000000	0.89924700
589.00000000	0.90406138
590.00000000	0.91701932
591.00000000	0.92538229
592.00000000	0.92691928
593.00000000	0.94430612
594.00000000	0.94225354
595.00000000	0.95804539
596.00000000	0.95447753
597.00000000	0.95642511
598.00000000	0.97434230
599.00000000	0.97881798
600.00000000	0.98832626
601.00000000	0.98995616
602.00000000	1.00000000
603.00000000	0.99846156
604.00000000	0.99878846
605.00000000	0.99313648
606.00000000	0.98246569
607.00000000	0.98257692
608.00000000	0.97817728
609.00000000	0.98227634
610.00000000	0.98391992
611.00000000	0.97775249
612.00000000	0.97372495
613.00000000	0.96963449
614.00000000	0.96890496
615.00000000	0.97805552
616.00000000	0.96813284
617.00000000	0.97509826
618.00000000	0.97293367
619.00000000	0.96252076
620.00000000	0.95521839
621.00000000	0.94337591
622.00000000	0.93302024
623.00000000	0.93010620
624.00000000	0.91175229
625.00000000	0.89692890
626.00000000	0.89125141
627.00000000	0.88733905
628.00000000	0.86843500
629.00000000	0.85536875
630.00000000	0.84812004
631.00000000	0.83893361
632.00000000	0.81850039
633.00000000	0.81185954
634.00000000	0.79476924
635.00000000	0.79372591
636.00000000	0.77787328
637.00000000	0.75991119
638.00000000	0.75146014
639.00000000	0.73241047
640.00000000	0.71340682
641.00000000	0.70750778
642.00000000	0.69406194
643.00000000	0.68695615
644.00000000	0.66981011
645.00000000	0.66390851
646.00000000	0.64814321
647.00000000	0.63003519
648.00000000	0.61319737
649.00000000	0.60661036
650.00000000	0.59350943
651.00000000	0.58109435
652.00000000	0.56958336
653.00000000	0.55163987
654.00000000	0.54116001
655.00000000	0.52745267
656.00000000	0.51943727
657.00000000	0.50213779
658.00000000	0.49793680
659.00000000	0.48567989
660.00000000	0.46510252
661.00000000	0.46622697
662.00000000	0.44501132
663.00000000	0.43213007
664.00000000	0.42197350
665.00000000	0.41120483
666.00000000	0.40309109
667.00000000	0.39112316
668.00000000	0.37937650
669.00000000	0.37022970
670.00000000	0.35780412
671.00000000	0.35128962
672.00000000	0.34678982
673.00000000	0.33940095
674.00000000	0.32333843
675.00000000	0.30606874
676.00000000	0.30685488
677.00000000	0.29842700
678.00000000	0.29153062
679.00000000	0.27818174
680.00000000	0.27333104
681.00000000	0.26668939
682.00000000	0.25669047
683.00000000	0.24717534
684.00000000	0.24014816
685.00000000	0.23521156
686.00000000	0.22651074
687.00000000	0.22725327
688.00000000	0.21117506
689.00000000	0.20989228
690.00000000	0.20126384
691.00000000	0.19501755
692.00000000	0.19040224
693.00000000	0.18787663
694.00000000	0.18413092
695.00000000	0.17701302
696.00000000	0.17453090
697.00000000	0.16345248
698.00000000	0.15719992
699.00000000	0.15743208
700.00000000	0.15780449
701.00000000	0.15086737
702.00000000	0.14037724
703.00000000	0.13838323
704.00000000	0.13429740
705.00000000	0.12651306
706.00000000	0.12109950
707.00000000	0.12361994
708.00000000	0.12162863
709.00000000	0.10793476
710.00000000	0.11262939
711.00000000	0.10682492
712.00000000	0.10122798
713.00000000	0.09895012
714.00000000	0.09507694
715.00000000	0.09295244
716.00000000	0.08625296
717.00000000	0.08747666
718.00000000	0.08722782
719.00000000	0.07736726
720.00000000	0.08225192
721.00000000	0.08042135
722.00000000	0.07664356
723.00000000	0.06626626
724.00000000	0.06962380
725.00000000	0.06325327
726.00000000	0.06291928
727.00000000	0.06219833
728.00000000	0.05969418
729.00000000	0.06434096
730.00000000	0.05976986
731.00000000	0.05489886
732.00000000	0.05242382
733.00000000	0.05696126
734.00000000	0.04894214
735.00000000	0.05038572
736.00000000	0.04659994
737.00000000	0.04354874
738.00000000	0.03678996
739.00000000	0.04401074
740.00000000	0.04393464
741.00000000	0.04489344
742.00000000	0.03931321
743.00000000	0.03367891
744.00000000	0.03659254
745.00000000	0.03415888
746.00000000	0.03080281
747.00000000	0.02900308
748.00000000	0.03159989
749.00000000	0.03079058
750.00000000	0.02549552
751.00000000	0.02918030
752.00000000	0.02732585
753.00000000	0.02590056
754.00000000	0.02426535
755.00000000	0.02655056
756.00000000	0.02189563
757.00000000	0.02540133
758.00000000	0.02123022
759.00000000	0.01965310
760.00000000	0.01849796
761.00000000	0.02016106
762.00000000	0.02296944
763.00000000	0.01899573
764.00000000	0.01618070
765.00000000	0.01939182
766.00000000	0.02225395
767.00000000	0.01923375
768.00000000	0.01781491
769.00000000	0.01723064
770.00000000	0.01453359
771.00000000	0.01182812
772.00000000	0.01712960
773.00000000	0.01268481
774.00000000	0.01152057
775.00000000	0.00721899
776.00000000	0.01575478
777.00000000	0.00938463
778.00000000	0.01524706
779.00000000	0.01175455
780.00000000	0.00765572
781.00000000	0.01198767
782.00000000	0.00451988
783.00000000	0.00083863
784.00000000	0.00688136
785.00000000	0.00801188
786.00000000	0.00657225
787.00000000	0.00314798
788.00000000	0.00183263
789.00000000	0.00248347
790.00000000	0.00088864
791.00000000	0.00472634
792.00000000	0.00584815
793.00000000	0.00305361
794.00000000	0.00590663
795.00000000	0.00755126
796.00000000	0.00106240
797.00000000	0.00632985
798.00000000	0.00197979
799.00000000	0.01098973
800.00000000	0.01128429
801.00000000	0.00591467
802.00000000	0.01649560
803.00000000	0.00965282
804.00000000	0.00102231
805.00000000	0.00012649
806.00000000	0.00000000
807.00000000	0.00003360
808.00000000	0.00177723
809.00000000	0.01065667
810.00000000	0.00236822
811.00000000	0.00163389
812.00000000	0.00369868
813.00000000	0.00004564
814.00000000	0.00380971
815.00000000	0.00088765
816.00000000	0.00278962
817.00000000	0.00117175
818.00000000	0.00000811
819.00000000	0.00178997
820.00000000	0.00505272
821.00000000	0.00477542
822.00000000	0.00513109
823.00000000	0.00693424
824.00000000	0.00000176
825.00000000	0.00091971
826.00000000	0.00002939
827.00000000	0.00320825
828.00000000	0.00078876
829.00000000	0.00163507
830.00000000	0.00614340
831.00000000	0.00206643
832.00000000	0.00000000
833.00000000	0.00000000
834.00000000	0.00059178
835.00000000	0.00104162
836.00000000	0.00635132
837.00000000	0.00002381
838.00000000	0.00256621
839.00000000	0.00362810
840.00000000	0.00000000
841.00000000	0.00140813
842.00000000	0.00218495
843.00000000	0.00052767
844.00000000	0.01166981
845.00000000	0.00203926
846.00000000	0.00408104
847.00000000	0.00952581
848.00000000	0.00401982
849.00000000	0.00179369
850.00000000	0.00000000
851.00000000	0.00319150
852.00000000	0.00433034
853.00000000	0.00000000
854.00000000	0.00728026
855.00000000	0.01005183
856.00000000	0.00000000
857.00000000	0.00000000
858.00000000	0.00001144
859.00000000	0.00186059
860.00000000	0.00000000
861.00000000	0.00000000
862.00000000	0.00000000
863.00000000	0.00000000
864.00000000	0.00536895
865.00000000	0.00310477
866.00000000	0.00557180
867.00000000	0.00259840
868.00000000	0.00196248
869.00000000	0.00000000
870.00000000	0.00000000
871.00000000	0.00000000
872.00000000	0.00000000
873.00000000	0.00000000
874.00000000	0.00088684
875.00000000	0.00074729
876.00000000	0.00000000
877.00000000	0.00000000
878.00000000	0.00388601
879.00000000	0.00001342
880.00000000	0.00181537
881.00000000	0.00000000
882.00000000	0.00000000
883.00000000	0.00560067
884.00000000	0.01266139
885.00000000	0.00000000
886.00000000	0.00006725
887.00000000	0.00749619
888.00000000	0.00000000
889.00000000	0.00000000
890.00000000	0.01685390
891.00000000	0.00000000
892.00000000	0.00053219
893.00000000	0.00163778
894.00000000	0.00000000
895.00000000	0.00000000
896.00000000	0.00000000
897.00000000	0.00000000
898.00000000	0.02611982
899.00000000	0.00000000
900.00000000	0.02517692
