#LICA Lamps Spectra Database
#Website 1: https://guaix.fis.ucm.es/lamps_spectra
#Website 2: http://carlostapia.es/lamparas/lamps.html
#Latest update: 2017/12/26
#Tester: Carlos Eugenio Tapia Ayuga
#Correct for Electrical Dark: Yes (JAZA2310)
#Correct for Detector Non-linearity: Yes (JAZA2310)
#Correct for Flux: Yes
#Start wavelength (nm): 300
#End wavelength (nm): 900
#Steps (nm):	1
#Locus: D65 sRGB Gamma 1 CIE1931
#XYZ coordinates: 0.7006	0.5947	0.1684
#xyY coordinates: 0.4787	0.4063	0.5947
#sRGB: 255	89	19
#CCT Lindbloom (K):	2425
#CCT McCamy (K):	2410
#CCT Hernández-Andrés (K):	2277
#Melatonin: 0.259
#Chlorophyll a: 0.214
#Chlorophyll b: 0.549
#Beta Carotene: 0.216
#Manufacturer: Unknown
#Luminance manufacturer: Unknown
#Other data: Riba-Roja de Turia streetlamps
#Begin Processed Spectral Data
W	S
300.00000000	0.00096265
301.00000000	0.00078653
302.00000000	0.00502786
303.00000000	0.00000000
304.00000000	0.00052589
305.00000000	0.00000000
306.00000000	0.00000000
307.00000000	0.00060531
308.00000000	0.00000112
309.00000000	0.00014797
310.00000000	0.00077501
311.00000000	0.00161656
312.00000000	0.00104182
313.00000000	0.00000000
314.00000000	0.00021050
315.00000000	0.00000000
316.00000000	0.00284212
317.00000000	0.00000000
318.00000000	0.00002262
319.00000000	0.00187265
320.00000000	0.00000000
321.00000000	0.00000000
322.00000000	0.00007266
323.00000000	0.00000000
324.00000000	0.00000000
325.00000000	0.00094423
326.00000000	0.00039845
327.00000000	0.00035666
328.00000000	0.00000431
329.00000000	0.00040772
330.00000000	0.00000000
331.00000000	0.00013232
332.00000000	0.00257536
333.00000000	0.00000000
334.00000000	0.00263684
335.00000000	0.00000000
336.00000000	0.00244040
337.00000000	0.00000000
338.00000000	0.00162060
339.00000000	0.00165581
340.00000000	0.00000000
341.00000000	0.00277888
342.00000000	0.00009928
343.00000000	0.00077983
344.00000000	0.00035576
345.00000000	0.00003255
346.00000000	0.00000000
347.00000000	0.00000000
348.00000000	0.00000000
349.00000000	0.00000000
350.00000000	0.00146432
351.00000000	0.00012901
352.00000000	0.00000000
353.00000000	0.00032356
354.00000000	0.00000832
355.00000000	0.00097664
356.00000000	0.00077590
357.00000000	0.00000000
358.00000000	0.00000000
359.00000000	0.00078479
360.00000000	0.00000000
361.00000000	0.00004869
362.00000000	0.00000000
363.00000000	0.00000000
364.00000000	0.00000000
365.00000000	0.00000000
366.00000000	0.00000000
367.00000000	0.00000172
368.00000000	0.00000000
369.00000000	0.00000000
370.00000000	0.00044182
371.00000000	0.00085559
372.00000000	0.00000000
373.00000000	0.00011412
374.00000000	0.00003926
375.00000000	0.00000000
376.00000000	0.00021263
377.00000000	0.00009682
378.00000000	0.00118478
379.00000000	0.00000000
380.00000000	0.00000019
381.00000000	0.00000000
382.00000000	0.00006967
383.00000000	0.00032271
384.00000000	0.00022015
385.00000000	0.00002630
386.00000000	0.00037300
387.00000000	0.00040246
388.00000000	0.00184596
389.00000000	0.00029207
390.00000000	0.00060281
391.00000000	0.00050544
392.00000000	0.00016291
393.00000000	0.00088722
394.00000000	0.00082255
395.00000000	0.00054791
396.00000000	0.00046200
397.00000000	0.00082943
398.00000000	0.00000000
399.00000000	0.00000000
400.00000000	0.00000000
401.00000000	0.00000126
402.00000000	0.00088679
403.00000000	0.00000000
404.00000000	0.00043024
405.00000000	0.00003138
406.00000000	0.00023889
407.00000000	0.00169430
408.00000000	0.00070314
409.00000000	0.00124350
410.00000000	0.00222366
411.00000000	0.00237526
412.00000000	0.00321632
413.00000000	0.00332238
414.00000000	0.00340894
415.00000000	0.00369611
416.00000000	0.00501517
417.00000000	0.00565376
418.00000000	0.00648820
419.00000000	0.00758181
420.00000000	0.00833606
421.00000000	0.01144866
422.00000000	0.01343055
423.00000000	0.01571940
424.00000000	0.01961274
425.00000000	0.02177841
426.00000000	0.02302219
427.00000000	0.02945882
428.00000000	0.03266888
429.00000000	0.03910707
430.00000000	0.04288603
431.00000000	0.04998597
432.00000000	0.05644032
433.00000000	0.06196695
434.00000000	0.07040617
435.00000000	0.08307835
436.00000000	0.09468508
437.00000000	0.10749275
438.00000000	0.12429147
439.00000000	0.14674702
440.00000000	0.16539490
441.00000000	0.18900022
442.00000000	0.21476517
443.00000000	0.24130157
444.00000000	0.26210344
445.00000000	0.28962762
446.00000000	0.30555048
447.00000000	0.31806587
448.00000000	0.32412847
449.00000000	0.33119445
450.00000000	0.31428628
451.00000000	0.30370120
452.00000000	0.28874768
453.00000000	0.27019282
454.00000000	0.25181413
455.00000000	0.23425098
456.00000000	0.22115985
457.00000000	0.20738214
458.00000000	0.19853797
459.00000000	0.19425396
460.00000000	0.18900483
461.00000000	0.18224626
462.00000000	0.17560079
463.00000000	0.16784297
464.00000000	0.16250605
465.00000000	0.15331527
466.00000000	0.14528151
467.00000000	0.13733114
468.00000000	0.13057185
469.00000000	0.12271940
470.00000000	0.11724834
471.00000000	0.11232056
472.00000000	0.10709282
473.00000000	0.10221003
474.00000000	0.10078616
475.00000000	0.09940659
476.00000000	0.09765162
477.00000000	0.09824945
478.00000000	0.09724028
479.00000000	0.09770556
480.00000000	0.10029777
481.00000000	0.10048851
482.00000000	0.10065229
483.00000000	0.10330686
484.00000000	0.10511339
485.00000000	0.11022463
486.00000000	0.11440619
487.00000000	0.11675705
488.00000000	0.12137585
489.00000000	0.12672970
490.00000000	0.13149063
491.00000000	0.13874831
492.00000000	0.14525453
493.00000000	0.15142740
494.00000000	0.15826253
495.00000000	0.16534579
496.00000000	0.17390589
497.00000000	0.18222636
498.00000000	0.19178390
499.00000000	0.19954329
500.00000000	0.20568134
501.00000000	0.21421262
502.00000000	0.22535626
503.00000000	0.23262952
504.00000000	0.23863256
505.00000000	0.24651603
506.00000000	0.25570532
507.00000000	0.26293661
508.00000000	0.27173833
509.00000000	0.27919497
510.00000000	0.28759083
511.00000000	0.29574981
512.00000000	0.30254067
513.00000000	0.31034879
514.00000000	0.31772086
515.00000000	0.32300774
516.00000000	0.32861602
517.00000000	0.33432972
518.00000000	0.33746616
519.00000000	0.34182491
520.00000000	0.34690615
521.00000000	0.35197467
522.00000000	0.35622708
523.00000000	0.36223129
524.00000000	0.37089618
525.00000000	0.37199747
526.00000000	0.37304365
527.00000000	0.37958143
528.00000000	0.38130147
529.00000000	0.38584051
530.00000000	0.38804086
531.00000000	0.38714640
532.00000000	0.39280991
533.00000000	0.39500841
534.00000000	0.39458584
535.00000000	0.40151116
536.00000000	0.40119219
537.00000000	0.40505704
538.00000000	0.40287124
539.00000000	0.40742300
540.00000000	0.40788838
541.00000000	0.41527223
542.00000000	0.41615796
543.00000000	0.41862885
544.00000000	0.41997354
545.00000000	0.42223726
546.00000000	0.42559656
547.00000000	0.42737361
548.00000000	0.43226080
549.00000000	0.43300887
550.00000000	0.43609706
551.00000000	0.44451137
552.00000000	0.44428114
553.00000000	0.44929993
554.00000000	0.45428019
555.00000000	0.45847417
556.00000000	0.47068022
557.00000000	0.47482448
558.00000000	0.48475774
559.00000000	0.48811605
560.00000000	0.49601542
561.00000000	0.50671209
562.00000000	0.51115651
563.00000000	0.51682430
564.00000000	0.52136263
565.00000000	0.53170842
566.00000000	0.54385231
567.00000000	0.55134383
568.00000000	0.55997265
569.00000000	0.56959147
570.00000000	0.57459707
571.00000000	0.58658179
572.00000000	0.60134276
573.00000000	0.60957595
574.00000000	0.61621692
575.00000000	0.62927041
576.00000000	0.63798818
577.00000000	0.65772485
578.00000000	0.66478768
579.00000000	0.67116069
580.00000000	0.68331145
581.00000000	0.69825651
582.00000000	0.71390385
583.00000000	0.73050740
584.00000000	0.74488654
585.00000000	0.76709027
586.00000000	0.78073859
587.00000000	0.79300421
588.00000000	0.80417946
589.00000000	0.81706374
590.00000000	0.82987070
591.00000000	0.84400570
592.00000000	0.85279597
593.00000000	0.86732707
594.00000000	0.87640842
595.00000000	0.89216030
596.00000000	0.90012858
597.00000000	0.90941134
598.00000000	0.91910662
599.00000000	0.93226210
600.00000000	0.94623491
601.00000000	0.95262743
602.00000000	0.96238390
603.00000000	0.97172556
604.00000000	0.98314773
605.00000000	0.97610849
606.00000000	0.98592025
607.00000000	0.98176283
608.00000000	0.98107615
609.00000000	0.98670778
610.00000000	0.98501523
611.00000000	0.99093319
612.00000000	0.98487295
613.00000000	0.98753604
614.00000000	0.98793124
615.00000000	0.99578381
616.00000000	0.98889097
617.00000000	0.99982006
618.00000000	1.00000000
619.00000000	0.99639021
620.00000000	0.99603825
621.00000000	0.98683177
622.00000000	0.97994381
623.00000000	0.97777163
624.00000000	0.96579258
625.00000000	0.96275439
626.00000000	0.95549429
627.00000000	0.94728984
628.00000000	0.94147081
629.00000000	0.92561357
630.00000000	0.92019753
631.00000000	0.90465922
632.00000000	0.89203644
633.00000000	0.88208295
634.00000000	0.87401139
635.00000000	0.86151080
636.00000000	0.84685550
637.00000000	0.83172483
638.00000000	0.82209759
639.00000000	0.80688829
640.00000000	0.79736747
641.00000000	0.78539963
642.00000000	0.77259427
643.00000000	0.75722800
644.00000000	0.74635518
645.00000000	0.72715183
646.00000000	0.71397504
647.00000000	0.70716048
648.00000000	0.68975523
649.00000000	0.68192850
650.00000000	0.66256375
651.00000000	0.64975835
652.00000000	0.63648510
653.00000000	0.61523938
654.00000000	0.60655445
655.00000000	0.59338657
656.00000000	0.57815846
657.00000000	0.56710164
658.00000000	0.55378875
659.00000000	0.54150998
660.00000000	0.53053046
661.00000000	0.51552739
662.00000000	0.50614951
663.00000000	0.49172471
664.00000000	0.48068488
665.00000000	0.46931256
666.00000000	0.45272592
667.00000000	0.44581672
668.00000000	0.43294717
669.00000000	0.42259750
670.00000000	0.41311011
671.00000000	0.40784774
672.00000000	0.39383267
673.00000000	0.38195778
674.00000000	0.37093325
675.00000000	0.36193046
676.00000000	0.35139565
677.00000000	0.34436436
678.00000000	0.33114184
679.00000000	0.32217705
680.00000000	0.31586030
681.00000000	0.30771407
682.00000000	0.29449167
683.00000000	0.28885048
684.00000000	0.27710021
685.00000000	0.27299539
686.00000000	0.26192114
687.00000000	0.25619457
688.00000000	0.24624402
689.00000000	0.23822883
690.00000000	0.23264078
691.00000000	0.22645708
692.00000000	0.22319515
693.00000000	0.21421488
694.00000000	0.20687750
695.00000000	0.20157370
696.00000000	0.19387396
697.00000000	0.18668490
698.00000000	0.18058745
699.00000000	0.18095489
700.00000000	0.17215540
701.00000000	0.16655338
702.00000000	0.16281626
703.00000000	0.15979703
704.00000000	0.15215739
705.00000000	0.14668603
706.00000000	0.14511716
707.00000000	0.13856487
708.00000000	0.13345929
709.00000000	0.13182122
710.00000000	0.12706742
711.00000000	0.12266841
712.00000000	0.11799346
713.00000000	0.11350089
714.00000000	0.10981711
715.00000000	0.10756327
716.00000000	0.10449706
717.00000000	0.09876583
718.00000000	0.09758013
719.00000000	0.09591042
720.00000000	0.08962994
721.00000000	0.08995468
722.00000000	0.08844172
723.00000000	0.08285809
724.00000000	0.07928444
725.00000000	0.07963967
726.00000000	0.07681292
727.00000000	0.07256936
728.00000000	0.07295797
729.00000000	0.07033489
730.00000000	0.06506371
731.00000000	0.06480829
732.00000000	0.06104834
733.00000000	0.05819104
734.00000000	0.05644976
735.00000000	0.05560206
736.00000000	0.05310202
737.00000000	0.05118595
738.00000000	0.05159054
739.00000000	0.05043972
740.00000000	0.04723175
741.00000000	0.04585676
742.00000000	0.04323147
743.00000000	0.04285434
744.00000000	0.04212385
745.00000000	0.03936134
746.00000000	0.03884931
747.00000000	0.03618675
748.00000000	0.03581453
749.00000000	0.03420684
750.00000000	0.03394095
751.00000000	0.03092353
752.00000000	0.02973040
753.00000000	0.02970007
754.00000000	0.02952731
755.00000000	0.02536659
756.00000000	0.02730347
757.00000000	0.02619974
758.00000000	0.02335367
759.00000000	0.02168997
760.00000000	0.02626410
761.00000000	0.02020639
762.00000000	0.02330731
763.00000000	0.02302875
764.00000000	0.02341749
765.00000000	0.02319596
766.00000000	0.02090864
767.00000000	0.01879016
768.00000000	0.01792012
769.00000000	0.01914397
770.00000000	0.01842068
771.00000000	0.01709350
772.00000000	0.01431549
773.00000000	0.01489278
774.00000000	0.01493474
775.00000000	0.01532228
776.00000000	0.01524532
777.00000000	0.01171796
778.00000000	0.01514184
779.00000000	0.01274000
780.00000000	0.01289325
781.00000000	0.01150161
782.00000000	0.00978665
783.00000000	0.01139933
784.00000000	0.00824355
785.00000000	0.00925531
786.00000000	0.01291126
787.00000000	0.00690460
788.00000000	0.00976531
789.00000000	0.00755118
790.00000000	0.01080802
791.00000000	0.00678919
792.00000000	0.00896161
793.00000000	0.00651500
794.00000000	0.00725463
795.00000000	0.00792942
796.00000000	0.00752947
797.00000000	0.00533516
798.00000000	0.00405107
799.00000000	0.00260124
800.00000000	0.00529415
801.00000000	0.00652071
802.00000000	0.00331398
803.00000000	0.00524355
804.00000000	0.00512336
805.00000000	0.00010381
806.00000000	0.00378242
807.00000000	0.00433012
808.00000000	0.00257743
809.00000000	0.00845648
810.00000000	0.00823911
811.00000000	0.00266978
812.00000000	0.00831317
813.00000000	0.00419025
814.00000000	0.00105167
815.00000000	0.00699893
816.00000000	0.00178329
817.00000000	0.00200845
818.00000000	0.00759802
819.00000000	0.00559264
820.00000000	0.00014366
821.00000000	0.00150650
822.00000000	0.00011918
823.00000000	0.00157837
824.00000000	0.00060310
825.00000000	0.00093420
826.00000000	0.00001046
827.00000000	0.00408602
828.00000000	0.00319678
829.00000000	0.00195946
830.00000000	0.00050382
831.00000000	0.00019326
832.00000000	0.01118587
833.00000000	0.00001352
834.00000000	0.00057678
835.00000000	0.00000219
836.00000000	0.00037096
837.00000000	0.00000000
838.00000000	0.00080052
839.00000000	0.00054052
840.00000000	0.00015480
841.00000000	0.00000000
842.00000000	0.00000000
843.00000000	0.00005561
844.00000000	0.00007311
845.00000000	0.00211614
846.00000000	0.00000000
847.00000000	0.00050937
848.00000000	0.00116272
849.00000000	0.00000000
850.00000000	0.00000000
851.00000000	0.00000000
852.00000000	0.00000000
853.00000000	0.00000007
854.00000000	0.00236635
855.00000000	0.00357643
856.00000000	0.00000000
857.00000000	0.00000000
858.00000000	0.00000000
859.00000000	0.00054758
860.00000000	0.00000021
861.00000000	0.00252751
862.00000000	0.00000000
863.00000000	0.00043778
864.00000000	0.00000000
865.00000000	0.00000000
866.00000000	0.00173056
867.00000000	0.00000000
868.00000000	0.00000000
869.00000000	0.00268453
870.00000000	0.00000000
871.00000000	0.00000000
872.00000000	0.00000405
873.00000000	0.00003311
874.00000000	0.00000000
875.00000000	0.00008380
876.00000000	0.00000000
877.00000000	0.00000000
878.00000000	0.00070814
879.00000000	0.00000746
880.00000000	0.00000000
881.00000000	0.00000000
882.00000000	0.00000000
883.00000000	0.00297362
884.00000000	0.00233004
885.00000000	0.00000000
886.00000000	0.00000000
887.00000000	0.00000000
888.00000000	0.00084758
889.00000000	0.00232164
890.00000000	0.00415252
891.00000000	0.00000000
892.00000000	0.00000000
893.00000000	0.00021809
894.00000000	0.00003234
895.00000000	0.00046137
896.00000000	0.00048941
897.00000000	0.00024532
898.00000000	0.00517550
899.00000000	0.00000000
900.00000000	0.00000000
