#LICA Lamps Spectra Database
#Website 1: https://guaix.fis.ucm.es/lamps_spectra
#Website 2: http://carlostapia.es/lamparas/lamps.html
#Latest update: 2017/12/26
#Tester: Carlos Eugenio Tapia Ayuga
#Correct for Electrical Dark: Yes (JAZA2310)
#Correct for Detector Non-linearity: Yes (JAZA2310)
#Correct for Flux: Yes
#Start wavelength (nm): 300
#End wavelength (nm): 900
#Steps (nm):	1
#Locus: D65 sRGB Gamma 1 CIE1931
#XYZ coordinates: 0.8008	0.7186	0.2605
#xyY coordinates: 0.4499	0.4037	0.7186
#sRGB: 255	109	33
#CCT Lindbloom (K):	2790
#CCT McCamy (K):	2790
#CCT Hernández-Andrés (K):	2719
#Melatonin: 0.307
#Chlorophyll a: 0.328
#Chlorophyll b: 0.599
#Beta Carotene: 0.328
#Manufacturer: Unknown
#Luminance manufacturer: Unknown
#Other data: Riba-Roja de Turia streetlamps. Plaça de la Torre.
#Begin Processed Spectral Data
W	S
300.00000000	0.00167820
301.00000000	0.00000000
302.00000000	0.00000000
303.00000000	0.00076855
304.00000000	0.00091622
305.00000000	0.00467621
306.00000000	0.00000000
307.00000000	0.00000000
308.00000000	0.00002080
309.00000000	0.00000000
310.00000000	0.00223484
311.00000000	0.00250452
312.00000000	0.00000000
313.00000000	0.00000000
314.00000000	0.00466583
315.00000000	0.00143430
316.00000000	0.00390159
317.00000000	0.00000000
318.00000000	0.00001300
319.00000000	0.00107532
320.00000000	0.00000000
321.00000000	0.00000000
322.00000000	0.00027068
323.00000000	0.00000000
324.00000000	0.00244845
325.00000000	0.00000000
326.00000000	0.00036693
327.00000000	0.00000000
328.00000000	0.00000000
329.00000000	0.00356242
330.00000000	0.00021994
331.00000000	0.00000000
332.00000000	0.00173970
333.00000000	0.00009285
334.00000000	0.00154126
335.00000000	0.00000000
336.00000000	0.00464859
337.00000000	0.00003376
338.00000000	0.00000000
339.00000000	0.00089192
340.00000000	0.00259294
341.00000000	0.00000000
342.00000000	0.00000000
343.00000000	0.00043465
344.00000000	0.00000000
345.00000000	0.00441171
346.00000000	0.00096758
347.00000000	0.00088740
348.00000000	0.00000000
349.00000000	0.00000000
350.00000000	0.00172125
351.00000000	0.00000000
352.00000000	0.00020619
353.00000000	0.00000000
354.00000000	0.00058488
355.00000000	0.00000565
356.00000000	0.00000000
357.00000000	0.00000000
358.00000000	0.00003636
359.00000000	0.00000000
360.00000000	0.00068074
361.00000000	0.00056065
362.00000000	0.00122821
363.00000000	0.00000003
364.00000000	0.00002868
365.00000000	0.00005066
366.00000000	0.00000000
367.00000000	0.00000000
368.00000000	0.00002282
369.00000000	0.00000000
370.00000000	0.00032090
371.00000000	0.00000486
372.00000000	0.00005182
373.00000000	0.00000000
374.00000000	0.00000000
375.00000000	0.00000000
376.00000000	0.00000183
377.00000000	0.00003853
378.00000000	0.00071536
379.00000000	0.00000000
380.00000000	0.00129715
381.00000000	0.00015936
382.00000000	0.00000000
383.00000000	0.00003963
384.00000000	0.00176575
385.00000000	0.00005237
386.00000000	0.00000000
387.00000000	0.00005453
388.00000000	0.00001696
389.00000000	0.00000013
390.00000000	0.00045462
391.00000000	0.00033207
392.00000000	0.00000000
393.00000000	0.00006741
394.00000000	0.00045971
395.00000000	0.00044419
396.00000000	0.00003368
397.00000000	0.00099845
398.00000000	0.00000000
399.00000000	0.00000000
400.00000000	0.00000000
401.00000000	0.00007058
402.00000000	0.00069992
403.00000000	0.00016884
404.00000000	0.00149460
405.00000000	0.00014878
406.00000000	0.00074902
407.00000000	0.00112860
408.00000000	0.00185588
409.00000000	0.00166771
410.00000000	0.00144310
411.00000000	0.00182362
412.00000000	0.00262128
413.00000000	0.00263654
414.00000000	0.00320027
415.00000000	0.00452586
416.00000000	0.00603475
417.00000000	0.00649146
418.00000000	0.00702893
419.00000000	0.00827751
420.00000000	0.01039894
421.00000000	0.01129706
422.00000000	0.01681979
423.00000000	0.01732376
424.00000000	0.02030029
425.00000000	0.02240624
426.00000000	0.02745525
427.00000000	0.03308174
428.00000000	0.03611883
429.00000000	0.04177013
430.00000000	0.04748280
431.00000000	0.05385718
432.00000000	0.06004104
433.00000000	0.06934789
434.00000000	0.07821298
435.00000000	0.08849148
436.00000000	0.09887824
437.00000000	0.10886910
438.00000000	0.12277806
439.00000000	0.13681160
440.00000000	0.15139398
441.00000000	0.17126057
442.00000000	0.18872014
443.00000000	0.21377958
444.00000000	0.23515863
445.00000000	0.26978439
446.00000000	0.29972359
447.00000000	0.33660933
448.00000000	0.37552297
449.00000000	0.42389854
450.00000000	0.44283525
451.00000000	0.48137134
452.00000000	0.50747519
453.00000000	0.52663852
454.00000000	0.53536401
455.00000000	0.53362888
456.00000000	0.51907186
457.00000000	0.49871155
458.00000000	0.47547028
459.00000000	0.45307506
460.00000000	0.42316242
461.00000000	0.39376070
462.00000000	0.36354093
463.00000000	0.33866583
464.00000000	0.32553821
465.00000000	0.31031081
466.00000000	0.29327780
467.00000000	0.28589695
468.00000000	0.28210755
469.00000000	0.27060468
470.00000000	0.26095502
471.00000000	0.25206153
472.00000000	0.24218159
473.00000000	0.23126334
474.00000000	0.21972083
475.00000000	0.21103113
476.00000000	0.19760676
477.00000000	0.19138800
478.00000000	0.17992940
479.00000000	0.17645245
480.00000000	0.17237185
481.00000000	0.16906711
482.00000000	0.16568198
483.00000000	0.16648457
484.00000000	0.16756067
485.00000000	0.16722601
486.00000000	0.17212885
487.00000000	0.17330550
488.00000000	0.17468425
489.00000000	0.17877649
490.00000000	0.18379809
491.00000000	0.18771198
492.00000000	0.19248874
493.00000000	0.19868477
494.00000000	0.20469127
495.00000000	0.21132017
496.00000000	0.21608699
497.00000000	0.22722947
498.00000000	0.23580761
499.00000000	0.24287995
500.00000000	0.25241419
501.00000000	0.26088264
502.00000000	0.27409251
503.00000000	0.28360737
504.00000000	0.29008421
505.00000000	0.29896031
506.00000000	0.30851669
507.00000000	0.31784477
508.00000000	0.32817864
509.00000000	0.33882637
510.00000000	0.34707783
511.00000000	0.35821649
512.00000000	0.36521151
513.00000000	0.37366052
514.00000000	0.38259595
515.00000000	0.39051879
516.00000000	0.39684166
517.00000000	0.40481263
518.00000000	0.41146139
519.00000000	0.41575191
520.00000000	0.42371102
521.00000000	0.42877634
522.00000000	0.43514565
523.00000000	0.44292993
524.00000000	0.45342132
525.00000000	0.45604135
526.00000000	0.46022205
527.00000000	0.46885409
528.00000000	0.47606892
529.00000000	0.48033344
530.00000000	0.48797323
531.00000000	0.49218989
532.00000000	0.49727214
533.00000000	0.50270735
534.00000000	0.50645911
535.00000000	0.51448055
536.00000000	0.51752867
537.00000000	0.52448237
538.00000000	0.53080323
539.00000000	0.53792035
540.00000000	0.54372854
541.00000000	0.55319735
542.00000000	0.55825036
543.00000000	0.56579760
544.00000000	0.57095520
545.00000000	0.57759649
546.00000000	0.58357423
547.00000000	0.58934732
548.00000000	0.59939555
549.00000000	0.60365732
550.00000000	0.61206109
551.00000000	0.62038160
552.00000000	0.62848522
553.00000000	0.63794712
554.00000000	0.64508992
555.00000000	0.64920855
556.00000000	0.66410046
557.00000000	0.67157055
558.00000000	0.68223288
559.00000000	0.69073381
560.00000000	0.69892185
561.00000000	0.70914204
562.00000000	0.71504044
563.00000000	0.72521510
564.00000000	0.72831485
565.00000000	0.73777259
566.00000000	0.75143130
567.00000000	0.75912363
568.00000000	0.76685694
569.00000000	0.77536219
570.00000000	0.77935116
571.00000000	0.79084820
572.00000000	0.79963542
573.00000000	0.80450937
574.00000000	0.81213742
575.00000000	0.82036952
576.00000000	0.82492524
577.00000000	0.83347858
578.00000000	0.84173042
579.00000000	0.85394100
580.00000000	0.86202621
581.00000000	0.86692114
582.00000000	0.88021644
583.00000000	0.88385421
584.00000000	0.88685145
585.00000000	0.90466919
586.00000000	0.91115712
587.00000000	0.91762568
588.00000000	0.92285911
589.00000000	0.92527237
590.00000000	0.93132414
591.00000000	0.93900150
592.00000000	0.94033063
593.00000000	0.94929069
594.00000000	0.95370738
595.00000000	0.95946770
596.00000000	0.96115417
597.00000000	0.96179355
598.00000000	0.97085907
599.00000000	0.97777772
600.00000000	0.98512915
601.00000000	0.98475380
602.00000000	0.99100368
603.00000000	1.00000000
604.00000000	0.99816688
605.00000000	0.99372804
606.00000000	0.99742099
607.00000000	0.99314909
608.00000000	0.99254768
609.00000000	0.99159827
610.00000000	0.99256948
611.00000000	0.99482774
612.00000000	0.98848689
613.00000000	0.98542294
614.00000000	0.98993212
615.00000000	0.99716864
616.00000000	0.99488627
617.00000000	0.99501826
618.00000000	0.99895485
619.00000000	0.99542791
620.00000000	0.99462168
621.00000000	0.98923713
622.00000000	0.98378997
623.00000000	0.98402921
624.00000000	0.97943658
625.00000000	0.97734388
626.00000000	0.97162976
627.00000000	0.96960569
628.00000000	0.97049034
629.00000000	0.95913590
630.00000000	0.95474820
631.00000000	0.94512655
632.00000000	0.93528781
633.00000000	0.92877265
634.00000000	0.92432688
635.00000000	0.91665637
636.00000000	0.90526807
637.00000000	0.90061577
638.00000000	0.89457816
639.00000000	0.88252124
640.00000000	0.87137936
641.00000000	0.86194293
642.00000000	0.85300992
643.00000000	0.84380642
644.00000000	0.83776662
645.00000000	0.82236801
646.00000000	0.81683492
647.00000000	0.80293053
648.00000000	0.79316212
649.00000000	0.78834000
650.00000000	0.77575902
651.00000000	0.76028830
652.00000000	0.75283324
653.00000000	0.73867670
654.00000000	0.73149658
655.00000000	0.71612140
656.00000000	0.70292555
657.00000000	0.69211352
658.00000000	0.67738841
659.00000000	0.67109375
660.00000000	0.66191943
661.00000000	0.64753654
662.00000000	0.63726861
663.00000000	0.62599150
664.00000000	0.61079219
665.00000000	0.60164540
666.00000000	0.58856125
667.00000000	0.57843886
668.00000000	0.56256103
669.00000000	0.55947778
670.00000000	0.55032247
671.00000000	0.53912241
672.00000000	0.52592042
673.00000000	0.51672334
674.00000000	0.50604641
675.00000000	0.50195557
676.00000000	0.48505689
677.00000000	0.47684089
678.00000000	0.46976741
679.00000000	0.45628265
680.00000000	0.44987848
681.00000000	0.43715842
682.00000000	0.42859023
683.00000000	0.42071940
684.00000000	0.40944880
685.00000000	0.39703025
686.00000000	0.39207898
687.00000000	0.37848617
688.00000000	0.36998300
689.00000000	0.35777515
690.00000000	0.35412088
691.00000000	0.34810025
692.00000000	0.33930197
693.00000000	0.33327884
694.00000000	0.32241319
695.00000000	0.31359994
696.00000000	0.30752806
697.00000000	0.29993276
698.00000000	0.29155336
699.00000000	0.28961939
700.00000000	0.28186612
701.00000000	0.27257389
702.00000000	0.26812635
703.00000000	0.26378957
704.00000000	0.25262768
705.00000000	0.24653372
706.00000000	0.23874756
707.00000000	0.23422302
708.00000000	0.22696180
709.00000000	0.22263924
710.00000000	0.21716653
711.00000000	0.21031513
712.00000000	0.20396832
713.00000000	0.19904392
714.00000000	0.19359130
715.00000000	0.18899825
716.00000000	0.18452745
717.00000000	0.17893306
718.00000000	0.17615212
719.00000000	0.17225114
720.00000000	0.16329533
721.00000000	0.16107511
722.00000000	0.15784567
723.00000000	0.14995636
724.00000000	0.14904284
725.00000000	0.14624374
726.00000000	0.14063846
727.00000000	0.13568445
728.00000000	0.13488935
729.00000000	0.12954356
730.00000000	0.12890328
731.00000000	0.12245226
732.00000000	0.11469172
733.00000000	0.11385777
734.00000000	0.10839847
735.00000000	0.10380504
736.00000000	0.10188178
737.00000000	0.10077034
738.00000000	0.10036104
739.00000000	0.09474841
740.00000000	0.09432728
741.00000000	0.09075272
742.00000000	0.08870657
743.00000000	0.08448584
744.00000000	0.08187933
745.00000000	0.07787427
746.00000000	0.07683335
747.00000000	0.07578891
748.00000000	0.06929118
749.00000000	0.07312796
750.00000000	0.06805517
751.00000000	0.06566986
752.00000000	0.06441045
753.00000000	0.06223070
754.00000000	0.06034287
755.00000000	0.05776362
756.00000000	0.05561967
757.00000000	0.05506118
758.00000000	0.05055833
759.00000000	0.04942853
760.00000000	0.05357679
761.00000000	0.04852241
762.00000000	0.04633306
763.00000000	0.04699385
764.00000000	0.04604301
765.00000000	0.04552279
766.00000000	0.04035308
767.00000000	0.04259271
768.00000000	0.03952607
769.00000000	0.03819525
770.00000000	0.03683946
771.00000000	0.03597352
772.00000000	0.03460979
773.00000000	0.03474176
774.00000000	0.03549926
775.00000000	0.03335331
776.00000000	0.03147319
777.00000000	0.02909884
778.00000000	0.02815486
779.00000000	0.03016602
780.00000000	0.02677570
781.00000000	0.02505772
782.00000000	0.02509696
783.00000000	0.02206564
784.00000000	0.02067570
785.00000000	0.02258276
786.00000000	0.02869330
787.00000000	0.02008278
788.00000000	0.02017589
789.00000000	0.02109266
790.00000000	0.01758754
791.00000000	0.01776048
792.00000000	0.01971609
793.00000000	0.01788908
794.00000000	0.01837752
795.00000000	0.01889990
796.00000000	0.01385845
797.00000000	0.01575339
798.00000000	0.01401522
799.00000000	0.01092677
800.00000000	0.01572716
801.00000000	0.00705867
802.00000000	0.01091216
803.00000000	0.01215147
804.00000000	0.01382088
805.00000000	0.00990288
806.00000000	0.01334447
807.00000000	0.01135818
808.00000000	0.01118726
809.00000000	0.02411262
810.00000000	0.01258250
811.00000000	0.00569918
812.00000000	0.01350351
813.00000000	0.01153526
814.00000000	0.00591325
815.00000000	0.00545903
816.00000000	0.00554132
817.00000000	0.00690116
818.00000000	0.01140756
819.00000000	0.01033735
820.00000000	0.00531655
821.00000000	0.00542800
822.00000000	0.00496675
823.00000000	0.00316813
824.00000000	0.00137256
825.00000000	0.00567611
826.00000000	0.00141353
827.00000000	0.00548664
828.00000000	0.00142411
829.00000000	0.00110173
830.00000000	0.00230346
831.00000000	0.00390811
832.00000000	0.01281981
833.00000000	0.00003776
834.00000000	0.00024376
835.00000000	0.00694245
836.00000000	0.00160147
837.00000000	0.00000964
838.00000000	0.00018559
839.00000000	0.00495059
840.00000000	0.00518165
841.00000000	0.00339017
842.00000000	0.00564764
843.00000000	0.00000000
844.00000000	0.00000000
845.00000000	0.00000000
846.00000000	0.00000000
847.00000000	0.00046130
848.00000000	0.00088990
849.00000000	0.00000000
850.00000000	0.00337703
851.00000000	0.00358754
852.00000000	0.00000000
853.00000000	0.00000000
854.00000000	0.00409918
855.00000000	0.00000000
856.00000000	0.00000000
857.00000000	0.00101207
858.00000000	0.00627916
859.00000000	0.00607532
860.00000000	0.00000024
861.00000000	0.00029742
862.00000000	0.00054409
863.00000000	0.00063774
864.00000000	0.00146894
865.00000000	0.00000000
866.00000000	0.00407312
867.00000000	0.00000000
868.00000000	0.00066000
869.00000000	0.00085056
870.00000000	0.00014594
871.00000000	0.00462835
872.00000000	0.00068525
873.00000000	0.00026086
874.00000000	0.00000000
875.00000000	0.00000000
876.00000000	0.00000000
877.00000000	0.00010755
878.00000000	0.00218258
879.00000000	0.00045704
880.00000000	0.00000000
881.00000000	0.00014369
882.00000000	0.00000000
883.00000000	0.00152976
884.00000000	0.00000000
885.00000000	0.00000000
886.00000000	0.00000000
887.00000000	0.00000000
888.00000000	0.00583572
889.00000000	0.00052007
890.00000000	0.00000000
891.00000000	0.00121327
892.00000000	0.00030445
893.00000000	0.00000000
894.00000000	0.00000000
895.00000000	0.00269607
896.00000000	0.00000000
897.00000000	0.00831444
898.00000000	0.00000000
899.00000000	0.00000000
900.00000000	0.00000000
