#LICA Lamps Spectra Database
#Website 1: https://guaix.fis.ucm.es/lamps_spectra
#Website 2: http://carlostapia.es/lamparas/lamps.html
#Latest update: 2017/12/17
#Tester: Carlos Eugenio Tapia Ayuga
#Correct for Electrical Dark: Yes (JAZA2310)
#Correct for Detector Non-linearity: Yes (JAZA2310)
#Correct for Flux: Yes
#Start wavelength (nm): 300
#End wavelength (nm): 900
#Steps (nm):	1
#Locus: D65 sRGB Gamma 1 CIE1931
#XYZ coordinates: 0.7627	0.6831	0.2431
#xyY coordinates: 0.4516	0.4045	0.6831
#sRGB: 255	108	31
#CCT Lindbloom (K):	2771
#CCT McCamy (K):	2770
#CCT Hernández-Andrés (K):	2696
#Melatonin: 0.306
#Chlorophyll a: 0.208
#Chlorophyll b: 0.574
#Beta Carotene: 0.209
#Manufacturer: Philips
#Luminance manufacturer: 470lm
#Other data: Manufacturer 2700K. 5.5W
#Begin Processed Spectral Data
W	S
300.00000000	0.00000000
301.00000000	0.00137885
302.00000000	0.00000000
303.00000000	0.00000000
304.00000000	0.00481282
305.00000000	0.00000000
306.00000000	0.00000000
307.00000000	0.00025347
308.00000000	0.00000000
309.00000000	0.00000000
310.00000000	0.00140834
311.00000000	0.00000000
312.00000000	0.00734199
313.00000000	0.00000000
314.00000000	0.00578076
315.00000000	0.00000000
316.00000000	0.00032795
317.00000000	0.00000000
318.00000000	0.00000902
319.00000000	0.00000000
320.00000000	0.00000000
321.00000000	0.00259681
322.00000000	0.00000000
323.00000000	0.00029303
324.00000000	0.00000000
325.00000000	0.00000000
326.00000000	0.00480484
327.00000000	0.00246635
328.00000000	0.00000000
329.00000000	0.00057127
330.00000000	0.00000000
331.00000000	0.00000000
332.00000000	0.00000000
333.00000000	0.00000000
334.00000000	0.00148730
335.00000000	0.00130267
336.00000000	0.00000000
337.00000000	0.00000000
338.00000000	0.00211973
339.00000000	0.00000000
340.00000000	0.00000000
341.00000000	0.00000373
342.00000000	0.00000000
343.00000000	0.00081142
344.00000000	0.00062867
345.00000000	0.00000000
346.00000000	0.00145896
347.00000000	0.00105964
348.00000000	0.00000000
349.00000000	0.00000000
350.00000000	0.00000000
351.00000000	0.00000000
352.00000000	0.00000000
353.00000000	0.00000000
354.00000000	0.00000000
355.00000000	0.00000000
356.00000000	0.00204682
357.00000000	0.00114052
358.00000000	0.00000000
359.00000000	0.00000000
360.00000000	0.00018458
361.00000000	0.00000000
362.00000000	0.00000000
363.00000000	0.00217178
364.00000000	0.00000000
365.00000000	0.00000000
366.00000000	0.00047681
367.00000000	0.00000000
368.00000000	0.00000000
369.00000000	0.00000000
370.00000000	0.00074102
371.00000000	0.00000000
372.00000000	0.00005533
373.00000000	0.00020582
374.00000000	0.00081249
375.00000000	0.00149458
376.00000000	0.00000344
377.00000000	0.00000000
378.00000000	0.00000000
379.00000000	0.00000000
380.00000000	0.00074290
381.00000000	0.00268772
382.00000000	0.00000000
383.00000000	0.00000000
384.00000000	0.00000275
385.00000000	0.00009130
386.00000000	0.00000000
387.00000000	0.00069059
388.00000000	0.00076157
389.00000000	0.00009896
390.00000000	0.00153396
391.00000000	0.00259332
392.00000000	0.00001009
393.00000000	0.00000216
394.00000000	0.00000000
395.00000000	0.00000000
396.00000000	0.00216072
397.00000000	0.00206838
398.00000000	0.00075659
399.00000000	0.00050633
400.00000000	0.00022808
401.00000000	0.00062795
402.00000000	0.00183389
403.00000000	0.00076287
404.00000000	0.00000000
405.00000000	0.00022424
406.00000000	0.00188398
407.00000000	0.00343835
408.00000000	0.00287974
409.00000000	0.00402983
410.00000000	0.00217156
411.00000000	0.00354968
412.00000000	0.00744146
413.00000000	0.00452935
414.00000000	0.00732928
415.00000000	0.01107896
416.00000000	0.01101732
417.00000000	0.01560280
418.00000000	0.01933540
419.00000000	0.02356916
420.00000000	0.02623097
421.00000000	0.03471513
422.00000000	0.03843554
423.00000000	0.04963761
424.00000000	0.04733231
425.00000000	0.05647865
426.00000000	0.06763100
427.00000000	0.07263099
428.00000000	0.07739828
429.00000000	0.08950066
430.00000000	0.10012478
431.00000000	0.11155202
432.00000000	0.12128267
433.00000000	0.13463022
434.00000000	0.15109417
435.00000000	0.15290437
436.00000000	0.17340230
437.00000000	0.18641871
438.00000000	0.20284835
439.00000000	0.21695122
440.00000000	0.23506914
441.00000000	0.26029969
442.00000000	0.27756381
443.00000000	0.29956014
444.00000000	0.32432118
445.00000000	0.35134968
446.00000000	0.37589052
447.00000000	0.39804890
448.00000000	0.42203626
449.00000000	0.44190558
450.00000000	0.44582260
451.00000000	0.45176211
452.00000000	0.44890177
453.00000000	0.43475092
454.00000000	0.40823813
455.00000000	0.39183337
456.00000000	0.36679288
457.00000000	0.33556453
458.00000000	0.31697151
459.00000000	0.28701935
460.00000000	0.27531104
461.00000000	0.26413729
462.00000000	0.24876892
463.00000000	0.23276639
464.00000000	0.23193867
465.00000000	0.21879986
466.00000000	0.21277549
467.00000000	0.20665286
468.00000000	0.19385710
469.00000000	0.18357750
470.00000000	0.17885623
471.00000000	0.16698731
472.00000000	0.16148878
473.00000000	0.15267185
474.00000000	0.14309202
475.00000000	0.14200701
476.00000000	0.13554542
477.00000000	0.13354275
478.00000000	0.13038526
479.00000000	0.13025492
480.00000000	0.12992319
481.00000000	0.13137862
482.00000000	0.13037869
483.00000000	0.13509352
484.00000000	0.13476320
485.00000000	0.14059311
486.00000000	0.14402101
487.00000000	0.14781462
488.00000000	0.15368804
489.00000000	0.15579207
490.00000000	0.16233255
491.00000000	0.16678036
492.00000000	0.17792710
493.00000000	0.18461348
494.00000000	0.19501185
495.00000000	0.20375123
496.00000000	0.20945917
497.00000000	0.22149071
498.00000000	0.22840193
499.00000000	0.23512010
500.00000000	0.24588852
501.00000000	0.26064615
502.00000000	0.27133905
503.00000000	0.28118667
504.00000000	0.28738461
505.00000000	0.29622956
506.00000000	0.30508772
507.00000000	0.31595931
508.00000000	0.32515910
509.00000000	0.33185799
510.00000000	0.34131979
511.00000000	0.35557550
512.00000000	0.36406611
513.00000000	0.36521707
514.00000000	0.37764949
515.00000000	0.38682004
516.00000000	0.39501906
517.00000000	0.39984834
518.00000000	0.40389524
519.00000000	0.40792009
520.00000000	0.41667042
521.00000000	0.41904089
522.00000000	0.42440911
523.00000000	0.43110517
524.00000000	0.43965748
525.00000000	0.43596220
526.00000000	0.44937179
527.00000000	0.45307655
528.00000000	0.45565651
529.00000000	0.46625347
530.00000000	0.46664025
531.00000000	0.46994094
532.00000000	0.47765511
533.00000000	0.47915952
534.00000000	0.47905173
535.00000000	0.48591554
536.00000000	0.49065933
537.00000000	0.49276773
538.00000000	0.50854418
539.00000000	0.50735901
540.00000000	0.51061498
541.00000000	0.51494137
542.00000000	0.52141744
543.00000000	0.52606819
544.00000000	0.52939360
545.00000000	0.53596312
546.00000000	0.54302611
547.00000000	0.54835291
548.00000000	0.55579754
549.00000000	0.56023476
550.00000000	0.56244263
551.00000000	0.57232822
552.00000000	0.58455654
553.00000000	0.59165773
554.00000000	0.59566223
555.00000000	0.59922366
556.00000000	0.61244290
557.00000000	0.62594157
558.00000000	0.63771439
559.00000000	0.64389629
560.00000000	0.65402565
561.00000000	0.66168946
562.00000000	0.66316295
563.00000000	0.66882391
564.00000000	0.67645580
565.00000000	0.68246374
566.00000000	0.70016007
567.00000000	0.70286099
568.00000000	0.70817864
569.00000000	0.71785129
570.00000000	0.72687300
571.00000000	0.73833036
572.00000000	0.75199607
573.00000000	0.75296945
574.00000000	0.75988901
575.00000000	0.77197309
576.00000000	0.78758000
577.00000000	0.79463374
578.00000000	0.80292342
579.00000000	0.81000996
580.00000000	0.82222945
581.00000000	0.83007266
582.00000000	0.84134702
583.00000000	0.85572406
584.00000000	0.86348968
585.00000000	0.88285689
586.00000000	0.89035983
587.00000000	0.90212545
588.00000000	0.90399690
589.00000000	0.90338759
590.00000000	0.91485081
591.00000000	0.93064357
592.00000000	0.93045082
593.00000000	0.93593769
594.00000000	0.94900409
595.00000000	0.95252234
596.00000000	0.95814258
597.00000000	0.96882020
598.00000000	0.96552308
599.00000000	0.97246040
600.00000000	0.98294431
601.00000000	0.97892309
602.00000000	0.99011665
603.00000000	1.00000000
604.00000000	0.99813527
605.00000000	0.99042494
606.00000000	0.98907919
607.00000000	0.98653021
608.00000000	0.98714884
609.00000000	0.98496244
610.00000000	0.98025959
611.00000000	0.97790417
612.00000000	0.96885092
613.00000000	0.97964002
614.00000000	0.97594279
615.00000000	0.96874096
616.00000000	0.97505574
617.00000000	0.97587007
618.00000000	0.98317272
619.00000000	0.97377569
620.00000000	0.97264096
621.00000000	0.95489171
622.00000000	0.94917428
623.00000000	0.94944118
624.00000000	0.93440790
625.00000000	0.92901000
626.00000000	0.91883415
627.00000000	0.90932155
628.00000000	0.90619092
629.00000000	0.89604846
630.00000000	0.88714210
631.00000000	0.86726437
632.00000000	0.85460890
633.00000000	0.84753489
634.00000000	0.83712928
635.00000000	0.82427858
636.00000000	0.80881719
637.00000000	0.80091525
638.00000000	0.79185806
639.00000000	0.78051902
640.00000000	0.76649006
641.00000000	0.76256798
642.00000000	0.74198288
643.00000000	0.72558777
644.00000000	0.71708025
645.00000000	0.70642697
646.00000000	0.69107128
647.00000000	0.67894250
648.00000000	0.66291776
649.00000000	0.65765269
650.00000000	0.63836796
651.00000000	0.63344479
652.00000000	0.61385362
653.00000000	0.60237090
654.00000000	0.59245341
655.00000000	0.57937857
656.00000000	0.56833691
657.00000000	0.55782593
658.00000000	0.53929314
659.00000000	0.53262430
660.00000000	0.53153538
661.00000000	0.50588876
662.00000000	0.50233376
663.00000000	0.48299129
664.00000000	0.47359289
665.00000000	0.46316384
666.00000000	0.45648738
667.00000000	0.44842591
668.00000000	0.43304242
669.00000000	0.41545253
670.00000000	0.41695576
671.00000000	0.40906930
672.00000000	0.38735713
673.00000000	0.38165202
674.00000000	0.37524625
675.00000000	0.36225747
676.00000000	0.35949574
677.00000000	0.34418369
678.00000000	0.33322682
679.00000000	0.32749060
680.00000000	0.32203779
681.00000000	0.30991802
682.00000000	0.30518646
683.00000000	0.29685417
684.00000000	0.28616231
685.00000000	0.27942082
686.00000000	0.27417324
687.00000000	0.26995909
688.00000000	0.26332123
689.00000000	0.24486547
690.00000000	0.24175422
691.00000000	0.24125807
692.00000000	0.23144433
693.00000000	0.22103261
694.00000000	0.22228832
695.00000000	0.20967802
696.00000000	0.20274735
697.00000000	0.19794382
698.00000000	0.19162577
699.00000000	0.19479953
700.00000000	0.18544828
701.00000000	0.17988311
702.00000000	0.17730453
703.00000000	0.17390340
704.00000000	0.16347087
705.00000000	0.16104394
706.00000000	0.15526286
707.00000000	0.14554319
708.00000000	0.14129798
709.00000000	0.14032077
710.00000000	0.13982556
711.00000000	0.13188692
712.00000000	0.12902438
713.00000000	0.12820483
714.00000000	0.12435796
715.00000000	0.11864792
716.00000000	0.11656680
717.00000000	0.11422066
718.00000000	0.10759670
719.00000000	0.10544705
720.00000000	0.10036018
721.00000000	0.09782135
722.00000000	0.09073883
723.00000000	0.09135321
724.00000000	0.09125319
725.00000000	0.08994600
726.00000000	0.08645902
727.00000000	0.08072811
728.00000000	0.08131986
729.00000000	0.07676408
730.00000000	0.07537606
731.00000000	0.07809074
732.00000000	0.07159872
733.00000000	0.06943278
734.00000000	0.06631751
735.00000000	0.06149582
736.00000000	0.05922881
737.00000000	0.06379949
738.00000000	0.05900648
739.00000000	0.05450361
740.00000000	0.05135900
741.00000000	0.05116175
742.00000000	0.05081754
743.00000000	0.04993861
744.00000000	0.04846467
745.00000000	0.04551945
746.00000000	0.03910351
747.00000000	0.04508139
748.00000000	0.04048554
749.00000000	0.04317763
750.00000000	0.04348782
751.00000000	0.03568517
752.00000000	0.03568389
753.00000000	0.03766313
754.00000000	0.03248877
755.00000000	0.03504275
756.00000000	0.02751841
757.00000000	0.03062361
758.00000000	0.02687572
759.00000000	0.03392929
760.00000000	0.02614524
761.00000000	0.02921774
762.00000000	0.02726549
763.00000000	0.02619401
764.00000000	0.02899363
765.00000000	0.02196614
766.00000000	0.02298475
767.00000000	0.02458347
768.00000000	0.02021900
769.00000000	0.01598544
770.00000000	0.02246762
771.00000000	0.02007393
772.00000000	0.01927890
773.00000000	0.02248792
774.00000000	0.01947901
775.00000000	0.01358226
776.00000000	0.00869323
777.00000000	0.01660377
778.00000000	0.02055058
779.00000000	0.01741714
780.00000000	0.01678836
781.00000000	0.00992607
782.00000000	0.01094760
783.00000000	0.01463157
784.00000000	0.01602536
785.00000000	0.01338964
786.00000000	0.00945039
787.00000000	0.00835798
788.00000000	0.01025882
789.00000000	0.01834936
790.00000000	0.00940607
791.00000000	0.00907179
792.00000000	0.00967755
793.00000000	0.00817999
794.00000000	0.00038153
795.00000000	0.00473563
796.00000000	0.00076560
797.00000000	0.01373662
798.00000000	0.00328127
799.00000000	0.00219160
800.00000000	0.00525756
801.00000000	0.00128827
802.00000000	0.00169728
803.00000000	0.00033343
804.00000000	0.00710774
805.00000000	0.00627126
806.00000000	0.00337699
807.00000000	0.00001899
808.00000000	0.00721743
809.00000000	0.00594892
810.00000000	0.00576837
811.00000000	0.00001879
812.00000000	0.00000000
813.00000000	0.00482116
814.00000000	0.00478160
815.00000000	0.00449370
816.00000000	0.00309058
817.00000000	0.00114181
818.00000000	0.00141842
819.00000000	0.00313370
820.00000000	0.00044042
821.00000000	0.00328388
822.00000000	0.00133351
823.00000000	0.00693173
824.00000000	0.00000000
825.00000000	0.00347619
826.00000000	0.00436824
827.00000000	0.00304683
828.00000000	0.00332777
829.00000000	0.00000000
830.00000000	0.00000000
831.00000000	0.00000000
832.00000000	0.00321103
833.00000000	0.01365368
834.00000000	0.00631917
835.00000000	0.00320710
836.00000000	0.00141265
837.00000000	0.00014589
838.00000000	0.00032638
839.00000000	0.00175673
840.00000000	0.00148563
841.00000000	0.00730295
842.00000000	0.00000000
843.00000000	0.00000000
844.00000000	0.00000000
845.00000000	0.00121462
846.00000000	0.00000000
847.00000000	0.00010913
848.00000000	0.00058984
849.00000000	0.00696029
850.00000000	0.00080204
851.00000000	0.00000000
852.00000000	0.00000000
853.00000000	0.00000021
854.00000000	0.00000000
855.00000000	0.00000000
856.00000000	0.00000000
857.00000000	0.00000000
858.00000000	0.00000000
859.00000000	0.00000000
860.00000000	0.00000225
861.00000000	0.00050178
862.00000000	0.01066731
863.00000000	0.00292537
864.00000000	0.00000000
865.00000000	0.00000000
866.00000000	0.00468271
867.00000000	0.00000000
868.00000000	0.01079325
869.00000000	0.00000000
870.00000000	0.00000000
871.00000000	0.00000000
872.00000000	0.00000000
873.00000000	0.00000000
874.00000000	0.00023901
875.00000000	0.00000000
876.00000000	0.00857941
877.00000000	0.00870438
878.00000000	0.00886624
879.00000000	0.02052375
880.00000000	0.00000000
881.00000000	0.01010830
882.00000000	0.00000000
883.00000000	0.00000000
884.00000000	0.00096376
885.00000000	0.00028700
886.00000000	0.00210488
887.00000000	0.00000000
888.00000000	0.00000000
889.00000000	0.00001438
890.00000000	0.00000000
891.00000000	0.01915070
892.00000000	0.00000000
893.00000000	0.00000000
894.00000000	0.01046259
895.00000000	0.00006749
896.00000000	0.00000000
897.00000000	0.00000000
898.00000000	0.00000000
899.00000000	0.00000000
900.00000000	0.00000000
