#LICA Lamps Spectra Database
#Website 1: https://guaix.fis.ucm.es/lamps_spectra
#Website 2: http://carlostapia.es/lamparas/lamps.html
#Latest update: 2017/12/15
#Tester: Carlos Eugenio Tapia Ayuga
#Correct for Electrical Dark: Yes (JAZA2310)
#Correct for Detector Non-linearity: Yes (JAZA2310)
#Correct for Flux: Yes
#Start wavelength (nm): 300
#End wavelength (nm): 900
#Steps (nm):	1
#Locus: D65 sRGB Gamma 1 CIE1931
#XYZ coordinates: 0.1040	0.1169	0.0806
#xyY coordinates: 0.3451	0.3877	0.1169
#sRGB: 30	31	17
#CCT Lindbloom (K):	5106
#CCT McCamy (K):	5094
#CCT Hernández-Andrés (K):	5065
#Melatonin: 0.846
#Chlorophyll a: 0.194
#Chlorophyll b: 0.707
#Beta Carotene: 0.202
#Manufacturer: Unknown
#Luminance manufacturer: Unknown
#Other data: Madrid streetlamp at Paraninfo Universidad Complutense
#Begin Processed Spectral Data
W	S
300.00000000	0.00000000
301.00000000	0.00114086
302.00000000	0.00000000
303.00000000	0.00266279
304.00000000	0.00000000
305.00000000	0.00010588
306.00000000	0.00000000
307.00000000	0.00000000
308.00000000	0.00000000
309.00000000	0.00000000
310.00000000	0.00000000
311.00000000	0.00479808
312.00000000	0.00000000
313.00000000	0.00000000
314.00000000	0.00883305
315.00000000	0.00000000
316.00000000	0.00561676
317.00000000	0.00000000
318.00000000	0.00000000
319.00000000	0.00950078
320.00000000	0.00519848
321.00000000	0.00000000
322.00000000	0.01348758
323.00000000	0.00000000
324.00000000	0.00651867
325.00000000	0.00000000
326.00000000	0.00000000
327.00000000	0.00000000
328.00000000	0.00000000
329.00000000	0.00255691
330.00000000	0.00114896
331.00000000	0.00774490
332.00000000	0.02119814
333.00000000	0.00517416
334.00000000	0.00448068
335.00000000	0.01014824
336.00000000	0.02611880
337.00000000	0.01725021
338.00000000	0.02599384
339.00000000	0.02460497
340.00000000	0.04088555
341.00000000	0.04642695
342.00000000	0.05027234
343.00000000	0.04936661
344.00000000	0.04667807
345.00000000	0.07644241
346.00000000	0.08501576
347.00000000	0.06613511
348.00000000	0.06626007
349.00000000	0.08468285
350.00000000	0.08773961
351.00000000	0.16091063
352.00000000	0.37759805
353.00000000	0.44877615
354.00000000	0.30546414
355.00000000	0.17360290
356.00000000	0.13066291
357.00000000	0.11870895
358.00000000	0.10797908
359.00000000	0.11707088
360.00000000	0.10870142
361.00000000	0.09210105
362.00000000	0.07880425
363.00000000	0.09022378
364.00000000	0.13565511
365.00000000	0.27552047
366.00000000	0.28633571
367.00000000	0.21726953
368.00000000	0.15238783
369.00000000	0.13425146
370.00000000	0.12871482
371.00000000	0.13350122
372.00000000	0.14888204
373.00000000	0.15587050
374.00000000	0.16320332
375.00000000	0.16205769
376.00000000	0.18104971
377.00000000	0.24986025
378.00000000	0.39193149
379.00000000	0.40336701
380.00000000	0.31789099
381.00000000	0.20805134
382.00000000	0.12871649
383.00000000	0.09983498
384.00000000	0.09681233
385.00000000	0.10585595
386.00000000	0.10259650
387.00000000	0.09606114
388.00000000	0.11282534
389.00000000	0.15554284
390.00000000	0.13264820
391.00000000	0.10094889
392.00000000	0.10290914
393.00000000	0.08226140
394.00000000	0.09304039
395.00000000	0.11894170
396.00000000	0.12003630
397.00000000	0.10992312
398.00000000	0.09102315
399.00000000	0.08185313
400.00000000	0.10752956
401.00000000	0.09197466
402.00000000	0.08166640
403.00000000	0.08724620
404.00000000	0.14793244
405.00000000	0.22875131
406.00000000	0.18391974
407.00000000	0.11969051
408.00000000	0.10997057
409.00000000	0.12404217
410.00000000	0.19245470
411.00000000	0.24241893
412.00000000	0.17503041
413.00000000	0.15908870
414.00000000	0.16591738
415.00000000	0.12695942
416.00000000	0.11881937
417.00000000	0.15674737
418.00000000	0.15563203
419.00000000	0.20426247
420.00000000	0.23114987
421.00000000	0.22475688
422.00000000	0.24703172
423.00000000	0.20302265
424.00000000	0.13344995
425.00000000	0.11178464
426.00000000	0.10606414
427.00000000	0.09242132
428.00000000	0.07261920
429.00000000	0.06868534
430.00000000	0.06365952
431.00000000	0.06707970
432.00000000	0.06215475
433.00000000	0.05497932
434.00000000	0.05231009
435.00000000	0.10159253
436.00000000	0.23298898
437.00000000	0.17665036
438.00000000	0.10416398
439.00000000	0.07843914
440.00000000	0.07260632
441.00000000	0.06885132
442.00000000	0.06160435
443.00000000	0.05437098
444.00000000	0.05544268
445.00000000	0.06266389
446.00000000	0.05685206
447.00000000	0.04982925
448.00000000	0.05012210
449.00000000	0.05114133
450.00000000	0.04696280
451.00000000	0.04751296
452.00000000	0.05190898
453.00000000	0.05399872
454.00000000	0.05143966
455.00000000	0.05580134
456.00000000	0.05509021
457.00000000	0.06099792
458.00000000	0.05994482
459.00000000	0.06551627
460.00000000	0.06942080
461.00000000	0.07266737
462.00000000	0.07074790
463.00000000	0.05644689
464.00000000	0.06250793
465.00000000	0.05362885
466.00000000	0.05139555
467.00000000	0.05335794
468.00000000	0.06406611
469.00000000	0.06326532
470.00000000	0.05359308
471.00000000	0.04947440
472.00000000	0.04994563
473.00000000	0.06114172
474.00000000	0.05959879
475.00000000	0.05079006
476.00000000	0.05007059
477.00000000	0.04516304
478.00000000	0.04853220
479.00000000	0.04697997
480.00000000	0.04321162
481.00000000	0.04161575
482.00000000	0.04193292
483.00000000	0.04662727
484.00000000	0.04232426
485.00000000	0.03965002
486.00000000	0.04131194
487.00000000	0.03922625
488.00000000	0.04505716
489.00000000	0.05016836
490.00000000	0.04367378
491.00000000	0.04253936
492.00000000	0.04454921
493.00000000	0.04725636
494.00000000	0.05334626
495.00000000	0.04910882
496.00000000	0.05196621
497.00000000	0.05122122
498.00000000	0.06834194
499.00000000	0.06469425
500.00000000	0.05707145
501.00000000	0.04648419
502.00000000	0.04492266
503.00000000	0.04738538
504.00000000	0.05727034
505.00000000	0.05738075
506.00000000	0.05981246
507.00000000	0.06422136
508.00000000	0.05833131
509.00000000	0.04655525
510.00000000	0.03968984
511.00000000	0.04253912
512.00000000	0.04929364
513.00000000	0.05371852
514.00000000	0.04750128
515.00000000	0.04380947
516.00000000	0.04348777
517.00000000	0.04376821
518.00000000	0.05081057
519.00000000	0.04960986
520.00000000	0.04446694
521.00000000	0.04409492
522.00000000	0.04825986
523.00000000	0.04760096
524.00000000	0.04272227
525.00000000	0.03561552
526.00000000	0.03550296
527.00000000	0.03544883
528.00000000	0.03639700
529.00000000	0.03716369
530.00000000	0.05710555
531.00000000	0.07774733
532.00000000	0.06643678
533.00000000	0.07552834
534.00000000	0.15169912
535.00000000	0.73076402
536.00000000	1.00000000
537.00000000	0.72130450
538.00000000	0.53293675
539.00000000	0.37977030
540.00000000	0.24987218
541.00000000	0.16085817
542.00000000	0.09578117
543.00000000	0.06489862
544.00000000	0.04667520
545.00000000	0.06092566
546.00000000	0.22461093
547.00000000	0.20635222
548.00000000	0.11613082
549.00000000	0.07357262
550.00000000	0.04596741
551.00000000	0.03631902
552.00000000	0.03093906
553.00000000	0.03599780
554.00000000	0.03706663
555.00000000	0.03765256
556.00000000	0.03723070
557.00000000	0.03728293
558.00000000	0.03352316
559.00000000	0.02933056
560.00000000	0.02706244
561.00000000	0.02782722
562.00000000	0.03132849
563.00000000	0.05289817
564.00000000	0.06663543
565.00000000	0.05732352
566.00000000	0.05236685
567.00000000	0.05743059
568.00000000	0.10792113
569.00000000	0.14094183
570.00000000	0.10084014
571.00000000	0.06742740
572.00000000	0.04761002
573.00000000	0.03434541
574.00000000	0.03300734
575.00000000	0.03314780
576.00000000	0.05849609
577.00000000	0.11639576
578.00000000	0.09185590
579.00000000	0.11666786
580.00000000	0.09400740
581.00000000	0.05755484
582.00000000	0.04425303
583.00000000	0.03508230
584.00000000	0.03171601
585.00000000	0.03465233
586.00000000	0.05333004
587.00000000	0.06209728
588.00000000	0.17800250
589.00000000	0.56462677
590.00000000	0.78289693
591.00000000	0.65397273
592.00000000	0.47391864
593.00000000	0.32112135
594.00000000	0.21698670
595.00000000	0.16520673
596.00000000	0.13642490
597.00000000	0.13683770
598.00000000	0.14702981
599.00000000	0.13656608
600.00000000	0.10227408
601.00000000	0.09051997
602.00000000	0.07269241
603.00000000	0.06564218
604.00000000	0.05531390
605.00000000	0.04898625
606.00000000	0.04694086
607.00000000	0.04554961
608.00000000	0.05325063
609.00000000	0.06020022
610.00000000	0.06040650
611.00000000	0.06137351
612.00000000	0.04936757
613.00000000	0.04947631
614.00000000	0.04640907
615.00000000	0.04372672
616.00000000	0.05966867
617.00000000	0.05833226
618.00000000	0.04642099
619.00000000	0.04232330
620.00000000	0.03237634
621.00000000	0.03170861
622.00000000	0.03087443
623.00000000	0.02976482
624.00000000	0.02837523
625.00000000	0.03311871
626.00000000	0.05632575
627.00000000	0.04385049
628.00000000	0.03688754
629.00000000	0.03168095
630.00000000	0.03534986
631.00000000	0.03331449
632.00000000	0.02802778
633.00000000	0.02887794
634.00000000	0.02583478
635.00000000	0.02837523
636.00000000	0.02589296
637.00000000	0.02695966
638.00000000	0.03411386
639.00000000	0.02811530
640.00000000	0.02997563
641.00000000	0.02732738
642.00000000	0.03027324
643.00000000	0.03143771
644.00000000	0.02582166
645.00000000	0.02535688
646.00000000	0.03734756
647.00000000	0.03299804
648.00000000	0.02635608
649.00000000	0.02749193
650.00000000	0.02086451
651.00000000	0.02523597
652.00000000	0.02278446
653.00000000	0.02534805
654.00000000	0.02643811
655.00000000	0.06402939
656.00000000	0.05816414
657.00000000	0.04058459
658.00000000	0.04635923
659.00000000	0.03784430
660.00000000	0.05324443
661.00000000	0.05932717
662.00000000	0.04536360
663.00000000	0.04384596
664.00000000	0.03617212
665.00000000	0.02935250
666.00000000	0.03302880
667.00000000	0.03348143
668.00000000	0.02888366
669.00000000	0.03079145
670.00000000	0.07756776
671.00000000	0.18515455
672.00000000	0.12478263
673.00000000	0.08178826
674.00000000	0.06008265
675.00000000	0.04298769
676.00000000	0.02828127
677.00000000	0.03175440
678.00000000	0.03701989
679.00000000	0.03656226
680.00000000	0.02783914
681.00000000	0.02791307
682.00000000	0.02509670
683.00000000	0.03518866
684.00000000	0.04700406
685.00000000	0.05137146
686.00000000	0.03823205
687.00000000	0.02563231
688.00000000	0.02117381
689.00000000	0.01736206
690.00000000	0.01776174
691.00000000	0.02262373
692.00000000	0.02570242
693.00000000	0.02104552
694.00000000	0.02291133
695.00000000	0.02288486
696.00000000	0.02192548
697.00000000	0.02305608
698.00000000	0.01924957
699.00000000	0.02450648
700.00000000	0.02375338
701.00000000	0.02162381
702.00000000	0.02185346
703.00000000	0.02115879
704.00000000	0.01620379
705.00000000	0.01814258
706.00000000	0.01984647
707.00000000	0.01296413
708.00000000	0.01918113
709.00000000	0.01625506
710.00000000	0.02013645
711.00000000	0.01534648
712.00000000	0.01447843
713.00000000	0.01243424
714.00000000	0.00818178
715.00000000	0.01863479
716.00000000	0.01513257
717.00000000	0.01226421
718.00000000	0.01870180
719.00000000	0.01396142
720.00000000	0.00835635
721.00000000	0.01132534
722.00000000	0.01520864
723.00000000	0.01628726
724.00000000	0.01034068
725.00000000	0.01584560
726.00000000	0.01944750
727.00000000	0.01266985
728.00000000	0.01908884
729.00000000	0.01761746
730.00000000	0.01304831
731.00000000	0.01703225
732.00000000	0.00803417
733.00000000	0.01741142
734.00000000	0.01155976
735.00000000	0.01507986
736.00000000	0.02092676
737.00000000	0.01617589
738.00000000	0.02327786
739.00000000	0.01837509
740.00000000	0.01549910
741.00000000	0.01775029
742.00000000	0.02224647
743.00000000	0.02399448
744.00000000	0.01608217
745.00000000	0.01172812
746.00000000	0.01225324
747.00000000	0.01687915
748.00000000	0.02355998
749.00000000	0.03006243
750.00000000	0.01750538
751.00000000	0.01940625
752.00000000	0.01135038
753.00000000	0.00885309
754.00000000	0.01795275
755.00000000	0.02615242
756.00000000	0.04262664
757.00000000	0.03202388
758.00000000	0.02305465
759.00000000	0.02157302
760.00000000	0.01194799
761.00000000	0.00810428
762.00000000	0.00315047
763.00000000	0.01040746
764.00000000	0.01281628
765.00000000	0.01887135
766.00000000	0.03199240
767.00000000	0.04310263
768.00000000	0.03504867
769.00000000	0.03883849
770.00000000	0.04391845
771.00000000	0.03062857
772.00000000	0.03991687
773.00000000	0.02504829
774.00000000	0.01614131
775.00000000	0.02650441
776.00000000	0.02304225
777.00000000	0.00916382
778.00000000	0.01045873
779.00000000	0.01647064
780.00000000	0.01578646
781.00000000	0.02362556
782.00000000	0.01534886
783.00000000	0.02870933
784.00000000	0.01242208
785.00000000	0.02384162
786.00000000	0.01306119
787.00000000	0.01300515
788.00000000	0.01758741
789.00000000	0.00000000
790.00000000	0.00000000
791.00000000	0.01493964
792.00000000	0.02144973
793.00000000	0.02503017
794.00000000	0.03445559
795.00000000	0.02484368
796.00000000	0.02025140
797.00000000	0.01085197
798.00000000	0.00000000
799.00000000	0.00576748
800.00000000	0.02033463
801.00000000	0.00405858
802.00000000	0.02608183
803.00000000	0.02306610
804.00000000	0.01532907
805.00000000	0.01947421
806.00000000	0.00816080
807.00000000	0.01713622
808.00000000	0.01879242
809.00000000	0.01567152
810.00000000	0.02791713
811.00000000	0.02405600
812.00000000	0.02672834
813.00000000	0.02869693
814.00000000	0.00017146
815.00000000	0.00320866
816.00000000	0.00381152
817.00000000	0.01367406
818.00000000	0.18960638
819.00000000	0.40459347
820.00000000	0.39673196
821.00000000	0.22572770
822.00000000	0.12420481
823.00000000	0.06157407
824.00000000	0.00859291
825.00000000	0.01809274
826.00000000	0.02471991
827.00000000	0.01629632
828.00000000	0.01115316
829.00000000	0.00000000
830.00000000	0.02334297
831.00000000	0.00000000
832.00000000	0.03329804
833.00000000	0.00340278
834.00000000	0.00150524
835.00000000	0.02370425
836.00000000	0.00868568
837.00000000	0.01765705
838.00000000	0.01440809
839.00000000	0.00009324
840.00000000	0.00423886
841.00000000	0.01368432
842.00000000	0.00000000
843.00000000	0.00165191
844.00000000	0.02087119
845.00000000	0.00128084
846.00000000	0.01972270
847.00000000	0.01289903
848.00000000	0.00000000
849.00000000	0.00000000
850.00000000	0.01197136
851.00000000	0.01709616
852.00000000	0.00363958
853.00000000	0.01586730
854.00000000	0.01306071
855.00000000	0.00000000
856.00000000	0.01254752
857.00000000	0.00000000
858.00000000	0.00373735
859.00000000	0.01058726
860.00000000	0.00000000
861.00000000	0.00606152
862.00000000	0.00000000
863.00000000	0.00000000
864.00000000	0.01800403
865.00000000	0.04126019
866.00000000	0.02613263
867.00000000	0.00000000
868.00000000	0.01043846
869.00000000	0.02865687
870.00000000	0.00000000
871.00000000	0.01379998
872.00000000	0.01266246
873.00000000	0.00736406
874.00000000	0.00000000
875.00000000	0.01048520
876.00000000	0.00000000
877.00000000	0.01898391
878.00000000	0.02221713
879.00000000	0.01747032
880.00000000	0.01121636
881.00000000	0.00076788
882.00000000	0.00000000
883.00000000	0.03793969
884.00000000	0.01123854
885.00000000	0.00000000
886.00000000	0.00000000
887.00000000	0.00680651
888.00000000	0.01836555
889.00000000	0.00678266
890.00000000	0.00000000
891.00000000	0.00000000
892.00000000	0.01886706
893.00000000	0.00000000
894.00000000	0.00000000
895.00000000	0.02899264
896.00000000	0.00000000
897.00000000	0.01680808
898.00000000	0.00544912
899.00000000	0.01897247
900.00000000	0.01859353
