#LICA Lamps Spectra Database
#Website 1: https://guaix.fis.ucm.es/lamps_spectra
#Website 2: http://carlostapia.es/lamparas/lamps.html
#Latest update: 2017/12/15
#Tester: Carlos Eugenio Tapia Ayuga
#Correct for Electrical Dark: Yes (JAZA2310)
#Correct for Detector Non-linearity: Yes (JAZA2310)
#Correct for Flux: Yes
#Start wavelength (nm): 300
#End wavelength (nm): 900
#Steps (nm):	1
#Locus: D65 sRGB Gamma 1 CIE1931
#XYZ coordinates: 0.1107	0.1148	0.1094
#xyY coordinates: 0.3306	0.3428	0.1148
#sRGB: 33	29	25
#CCT Lindbloom (K):	5582
#CCT McCamy (K):	5583
#CCT Hernández-Andrés (K):	5585
#Melatonin: 0.804
#Chlorophyll a: 0.182
#Chlorophyll b: 1.007
#Beta Carotene: 0.186
#Manufacturer: Unknown
#Luminance manufacturer: Unknown
#Other data:
#Begin Processed Spectral Data
W	S
300.00000000	0.00000000
301.00000000	0.00000000
302.00000000	0.00000000
303.00000000	0.00000000
304.00000000	0.00000000
305.00000000	0.00000000
306.00000000	0.00000000
307.00000000	0.00000000
308.00000000	0.00000000
309.00000000	0.00000000
310.00000000	0.00000000
311.00000000	0.00000000
312.00000000	0.00000000
313.00000000	0.00000000
314.00000000	0.00000000
315.00000000	0.00000000
316.00000000	0.00000000
317.00000000	0.00000000
318.00000000	0.00000000
319.00000000	0.00000000
320.00000000	0.00000000
321.00000000	0.00000000
322.00000000	0.00000000
323.00000000	0.00000000
324.00000000	0.00000000
325.00000000	0.00000000
326.00000000	0.00000000
327.00000000	0.00000000
328.00000000	0.00000000
329.00000000	0.00058218
330.00000000	0.00000000
331.00000000	0.00000000
332.00000000	0.00070154
333.00000000	0.00044333
334.00000000	0.00000000
335.00000000	0.00207636
336.00000000	0.00534558
337.00000000	0.00000000
338.00000000	0.00000000
339.00000000	0.00000000
340.00000000	0.00297034
341.00000000	0.00000000
342.00000000	0.00460653
343.00000000	0.00392131
344.00000000	0.00480213
345.00000000	0.00424407
346.00000000	0.00528444
347.00000000	0.00779366
348.00000000	0.00964348
349.00000000	0.01435841
350.00000000	0.01956758
351.00000000	0.04727254
352.00000000	0.14624875
353.00000000	0.19877065
354.00000000	0.12360560
355.00000000	0.05844284
356.00000000	0.04219856
357.00000000	0.03653046
358.00000000	0.03236580
359.00000000	0.03126063
360.00000000	0.03166987
361.00000000	0.03104798
362.00000000	0.03193270
363.00000000	0.03831378
364.00000000	0.08356282
365.00000000	0.24840674
366.00000000	0.29190192
367.00000000	0.14701630
368.00000000	0.06119054
369.00000000	0.04068123
370.00000000	0.03595413
371.00000000	0.03643790
372.00000000	0.03499682
373.00000000	0.03673167
374.00000000	0.03747461
375.00000000	0.04382817
376.00000000	0.04826906
377.00000000	0.10029136
378.00000000	0.21074748
379.00000000	0.23782032
380.00000000	0.17471589
381.00000000	0.10782925
382.00000000	0.06464513
383.00000000	0.04553647
384.00000000	0.04108730
385.00000000	0.03793549
386.00000000	0.03909668
387.00000000	0.03724540
388.00000000	0.03759081
389.00000000	0.03889280
390.00000000	0.04084931
391.00000000	0.04111750
392.00000000	0.04521176
393.00000000	0.04168482
394.00000000	0.04150700
395.00000000	0.04283189
396.00000000	0.04410392
397.00000000	0.04342333
398.00000000	0.04535158
399.00000000	0.04812559
400.00000000	0.04857233
401.00000000	0.04790392
402.00000000	0.04907218
403.00000000	0.05503550
404.00000000	0.10511931
405.00000000	0.19553334
406.00000000	0.15124722
407.00000000	0.07345700
408.00000000	0.06884876
409.00000000	0.08600115
410.00000000	0.19607971
411.00000000	0.31311983
412.00000000	0.24709525
413.00000000	0.15426213
414.00000000	0.10198285
415.00000000	0.06814454
416.00000000	0.05609683
417.00000000	0.05426479
418.00000000	0.05278181
419.00000000	0.05329384
420.00000000	0.05468888
421.00000000	0.05350308
422.00000000	0.05802849
423.00000000	0.06049582
424.00000000	0.05805358
425.00000000	0.06246695
426.00000000	0.06440836
427.00000000	0.06566675
428.00000000	0.06531866
429.00000000	0.06973543
430.00000000	0.07380899
431.00000000	0.07178743
432.00000000	0.07796219
433.00000000	0.08286761
434.00000000	0.09450488
435.00000000	0.17252066
436.00000000	0.38855527
437.00000000	0.38639438
438.00000000	0.22493416
439.00000000	0.15710945
440.00000000	0.15014643
441.00000000	0.15461290
442.00000000	0.15842581
443.00000000	0.16438329
444.00000000	0.16264041
445.00000000	0.14994742
446.00000000	0.12224905
447.00000000	0.09297781
448.00000000	0.07168537
449.00000000	0.06020424
450.00000000	0.08295238
451.00000000	0.34663245
452.00000000	0.59598992
453.00000000	0.48717876
454.00000000	0.29459773
455.00000000	0.17684122
456.00000000	0.09386692
457.00000000	0.04855333
458.00000000	0.03194293
459.00000000	0.02682462
460.00000000	0.02279807
461.00000000	0.02197742
462.00000000	0.02029616
463.00000000	0.01805221
464.00000000	0.01772483
465.00000000	0.01780277
466.00000000	0.01689808
467.00000000	0.01821420
468.00000000	0.01910890
469.00000000	0.01787439
470.00000000	0.01795745
471.00000000	0.01829897
472.00000000	0.01767221
473.00000000	0.01587646
474.00000000	0.01580753
475.00000000	0.01582239
476.00000000	0.01690003
477.00000000	0.01536346
478.00000000	0.01648106
479.00000000	0.01533935
480.00000000	0.01462685
481.00000000	0.01567502
482.00000000	0.01449555
483.00000000	0.01539976
484.00000000	0.01551863
485.00000000	0.01559585
486.00000000	0.01647350
487.00000000	0.01585259
488.00000000	0.01616902
489.00000000	0.01573250
490.00000000	0.01612371
491.00000000	0.01760303
492.00000000	0.02068517
493.00000000	0.01792335
494.00000000	0.01542290
495.00000000	0.01518589
496.00000000	0.01755090
497.00000000	0.01914690
498.00000000	0.02209678
499.00000000	0.02415268
500.00000000	0.02223148
501.00000000	0.01868092
502.00000000	0.01702280
503.00000000	0.01687445
504.00000000	0.01643453
505.00000000	0.01587817
506.00000000	0.01482172
507.00000000	0.01600313
508.00000000	0.01631858
509.00000000	0.01655681
510.00000000	0.01640944
511.00000000	0.01714800
512.00000000	0.01732753
513.00000000	0.01837448
514.00000000	0.01926042
515.00000000	0.01917321
516.00000000	0.02077798
517.00000000	0.02060260
518.00000000	0.01944408
519.00000000	0.02080941
520.00000000	0.02193430
521.00000000	0.02402358
522.00000000	0.02563297
523.00000000	0.02583564
524.00000000	0.02395878
525.00000000	0.02200446
526.00000000	0.01901658
527.00000000	0.01860735
528.00000000	0.01805879
529.00000000	0.01933033
530.00000000	0.02048616
531.00000000	0.02106761
532.00000000	0.02438652
533.00000000	0.03183429
534.00000000	0.09454483
535.00000000	0.62132474
536.00000000	1.00000000
537.00000000	0.84399352
538.00000000	0.55892162
539.00000000	0.37860754
540.00000000	0.25565281
541.00000000	0.15425555
542.00000000	0.08247689
543.00000000	0.04782329
544.00000000	0.03489329
545.00000000	0.06043638
546.00000000	0.41887637
547.00000000	0.50228134
548.00000000	0.32854614
549.00000000	0.13654997
550.00000000	0.06288154
551.00000000	0.03751603
552.00000000	0.02836605
553.00000000	0.02622733
554.00000000	0.02532946
555.00000000	0.02199764
556.00000000	0.02091659
557.00000000	0.01930207
558.00000000	0.01875034
559.00000000	0.01858178
560.00000000	0.01812699
561.00000000	0.01797718
562.00000000	0.01755115
563.00000000	0.01733240
564.00000000	0.01805538
565.00000000	0.01777306
566.00000000	0.01752070
567.00000000	0.02041138
568.00000000	0.03163138
569.00000000	0.05377663
570.00000000	0.05126887
571.00000000	0.03722274
572.00000000	0.02656714
573.00000000	0.02328087
574.00000000	0.02341557
575.00000000	0.02855800
576.00000000	0.06756334
577.00000000	0.17678860
578.00000000	0.19219737
579.00000000	0.22981157
580.00000000	0.19076360
581.00000000	0.12056048
582.00000000	0.06258070
583.00000000	0.03834788
584.00000000	0.02985098
585.00000000	0.02783771
586.00000000	0.03064825
587.00000000	0.04301799
588.00000000	0.16176811
589.00000000	0.54974972
590.00000000	0.87765863
591.00000000	0.82000965
592.00000000	0.57481367
593.00000000	0.36518573
594.00000000	0.24318222
595.00000000	0.17807330
596.00000000	0.14330984
597.00000000	0.11851384
598.00000000	0.10189589
599.00000000	0.08937341
600.00000000	0.08127063
601.00000000	0.07214332
602.00000000	0.06647449
603.00000000	0.06126824
604.00000000	0.05622690
605.00000000	0.05094222
606.00000000	0.04856381
607.00000000	0.04421134
608.00000000	0.04164025
609.00000000	0.03823632
610.00000000	0.04028857
611.00000000	0.04072362
612.00000000	0.03741981
613.00000000	0.03458661
614.00000000	0.03201552
615.00000000	0.03228298
616.00000000	0.03599091
617.00000000	0.03684006
618.00000000	0.03326124
619.00000000	0.02999908
620.00000000	0.02728598
621.00000000	0.02741362
622.00000000	0.02634401
623.00000000	0.02495628
624.00000000	0.02609482
625.00000000	0.02596815
626.00000000	0.02461452
627.00000000	0.02366501
628.00000000	0.02350838
629.00000000	0.02333275
630.00000000	0.02230383
631.00000000	0.02262025
632.00000000	0.02266848
633.00000000	0.02235377
634.00000000	0.02160473
635.00000000	0.02074217
636.00000000	0.02115189
637.00000000	0.02037094
638.00000000	0.01974248
639.00000000	0.02019678
640.00000000	0.01923435
641.00000000	0.01973785
642.00000000	0.02118185
643.00000000	0.02065765
644.00000000	0.01895374
645.00000000	0.01965065
646.00000000	0.01945480
647.00000000	0.02051028
648.00000000	0.02067348
649.00000000	0.02105982
650.00000000	0.02008253
651.00000000	0.01986671
652.00000000	0.01765126
653.00000000	0.01995392
654.00000000	0.01968767
655.00000000	0.03386339
656.00000000	0.03562869
657.00000000	0.03195779
658.00000000	0.02575039
659.00000000	0.02151021
660.00000000	0.02132119
661.00000000	0.01877738
662.00000000	0.01896811
663.00000000	0.01876154
664.00000000	0.01799667
665.00000000	0.01864803
666.00000000	0.01772434
667.00000000	0.01863074
668.00000000	0.01804953
669.00000000	0.01943483
670.00000000	0.05015932
671.00000000	0.15131932
672.00000000	0.12479164
673.00000000	0.08107576
674.00000000	0.03749142
675.00000000	0.02416120
676.00000000	0.02044767
677.00000000	0.01860126
678.00000000	0.01853111
679.00000000	0.01801348
680.00000000	0.01797207
681.00000000	0.01664329
682.00000000	0.01485119
683.00000000	0.01569913
684.00000000	0.01557344
685.00000000	0.01961581
686.00000000	0.01774699
687.00000000	0.01652636
688.00000000	0.01602822
689.00000000	0.01460371
690.00000000	0.01509186
691.00000000	0.01730512
692.00000000	0.01868652
693.00000000	0.01826389
694.00000000	0.01505971
695.00000000	0.01427925
696.00000000	0.01497372
697.00000000	0.01535932
698.00000000	0.01507408
699.00000000	0.01670759
700.00000000	0.01538441
701.00000000	0.01550036
702.00000000	0.01417109
703.00000000	0.01515958
704.00000000	0.01253514
705.00000000	0.01627839
706.00000000	0.01292781
707.00000000	0.01371631
708.00000000	0.01416305
709.00000000	0.01306105
710.00000000	0.01583311
711.00000000	0.01286521
712.00000000	0.01336968
713.00000000	0.01354969
714.00000000	0.01316945
715.00000000	0.01428533
716.00000000	0.01338332
717.00000000	0.01645085
718.00000000	0.01454086
719.00000000	0.01224015
720.00000000	0.01402007
721.00000000	0.01351413
722.00000000	0.01425513
723.00000000	0.01676265
724.00000000	0.01244794
725.00000000	0.01059275
726.00000000	0.01435792
727.00000000	0.01292294
728.00000000	0.01245232
729.00000000	0.01526578
730.00000000	0.01342985
731.00000000	0.01703230
732.00000000	0.01494936
733.00000000	0.01367198
734.00000000	0.01191106
735.00000000	0.01250786
736.00000000	0.01043540
737.00000000	0.01214223
738.00000000	0.01208669
739.00000000	0.01420446
740.00000000	0.01033455
741.00000000	0.01462734
742.00000000	0.01223747
743.00000000	0.01047461
744.00000000	0.01432821
745.00000000	0.01489748
746.00000000	0.01275510
747.00000000	0.01294315
748.00000000	0.01238582
749.00000000	0.01397939
750.00000000	0.01082904
751.00000000	0.00953971
752.00000000	0.01076302
753.00000000	0.01149331
754.00000000	0.01121074
755.00000000	0.01225647
756.00000000	0.01002348
757.00000000	0.01054818
758.00000000	0.00901259
759.00000000	0.01032286
760.00000000	0.01416354
761.00000000	0.01470748
762.00000000	0.01192714
763.00000000	0.01274487
764.00000000	0.00995723
765.00000000	0.00997891
766.00000000	0.02307723
767.00000000	0.04168945
768.00000000	0.03315089
769.00000000	0.02558328
770.00000000	0.02427886
771.00000000	0.02406620
772.00000000	0.02118989
773.00000000	0.01704058
774.00000000	0.01232322
775.00000000	0.01084463
776.00000000	0.00785432
777.00000000	0.00735983
778.00000000	0.00626148
779.00000000	0.01344471
780.00000000	0.01092647
781.00000000	0.01070724
782.00000000	0.01287471
783.00000000	0.00827865
784.00000000	0.00616989
785.00000000	0.00846110
786.00000000	0.01355651
787.00000000	0.00765652
788.00000000	0.00287631
789.00000000	0.00868910
790.00000000	0.00409426
791.00000000	0.00914875
792.00000000	0.01299528
793.00000000	0.01184846
794.00000000	0.00985833
795.00000000	0.01295095
796.00000000	0.01161656
797.00000000	0.00768892
798.00000000	0.00575725
799.00000000	0.01195881
800.00000000	0.00896168
801.00000000	0.00964568
802.00000000	0.00683708
803.00000000	0.00131368
804.00000000	0.00883038
805.00000000	0.00684999
806.00000000	0.00677424
807.00000000	0.00947395
808.00000000	0.01148673
809.00000000	0.00789500
810.00000000	0.00206808
811.00000000	0.01280650
812.00000000	0.01065877
813.00000000	0.00825770
814.00000000	0.00322196
815.00000000	0.00454515
816.00000000	0.00856194
817.00000000	0.01759670
818.00000000	0.10696645
819.00000000	0.28175811
820.00000000	0.38061423
821.00000000	0.26366229
822.00000000	0.11585578
823.00000000	0.05147495
824.00000000	0.02471976
825.00000000	0.01981653
826.00000000	0.01758598
827.00000000	0.01411482
828.00000000	0.01770680
829.00000000	0.01119613
830.00000000	0.00624321
831.00000000	0.00548272
832.00000000	0.00354472
833.00000000	0.00569781
834.00000000	0.01028291
835.00000000	0.00174045
836.00000000	0.01125556
837.00000000	0.01425367
838.00000000	0.00455367
839.00000000	0.00062286
840.00000000	0.00644685
841.00000000	0.00958113
842.00000000	0.00642054
843.00000000	0.00351573
844.00000000	0.00801947
845.00000000	0.00389184
846.00000000	0.00791132
847.00000000	0.00395006
848.00000000	0.01249519
849.00000000	0.00687825
850.00000000	0.00000000
851.00000000	0.00645002
852.00000000	0.00476413
853.00000000	0.00433054
854.00000000	0.00832079
855.00000000	0.00049887
856.00000000	0.00749429
857.00000000	0.01046341
858.00000000	0.00442091
859.00000000	0.00111832
860.00000000	0.00588051
861.00000000	0.00047183
862.00000000	0.00229973
863.00000000	0.00693671
864.00000000	0.00155922
865.00000000	0.00000000
866.00000000	0.00824187
867.00000000	0.00136922
868.00000000	0.00831494
869.00000000	0.01227767
870.00000000	0.00047524
871.00000000	0.00842968
872.00000000	0.00450422
873.00000000	0.00000000
874.00000000	0.00000000
875.00000000	0.00446306
876.00000000	0.00607221
877.00000000	0.00000000
878.00000000	0.00815076
879.00000000	0.00000000
880.00000000	0.00000000
881.00000000	0.00725582
882.00000000	0.00653284
883.00000000	0.01140440
884.00000000	0.00000000
885.00000000	0.00000000
886.00000000	0.00000000
887.00000000	0.00784482
888.00000000	0.01012336
889.00000000	0.00002558
890.00000000	0.00000000
891.00000000	0.00000000
892.00000000	0.00508640
893.00000000	0.00000000
894.00000000	0.00000000
895.00000000	0.00000000
896.00000000	0.00000000
897.00000000	0.00219280
898.00000000	0.00149516
899.00000000	0.01729586
900.00000000	0.00000000
