#LICA Lamps Spectra Database
#Website 1: https://guaix.fis.ucm.es/lamps_spectra
#Website 2: http://carlostapia.es/lamparas/lamps.html
#Latest update: 2018/01/15
#Tester: Carlos Eugenio Tapia Ayuga
#Correct for Electrical Dark: Yes (JAZA2310)
#Correct for Detector Non-linearity: Yes (JAZA2310)
#Correct for Flux: Yes
#Start wavelength (nm): 300
#End wavelength (nm): 900
#Steps (nm):	1
#Locus: D65 sRGB Gamma 1 CIE1931
#XYZ coordinates: 0.1025	0.1025	0.1033
#xyY coordinates: 0.3324	0.3326	0.1025
#sRGB: 31	25	24
#CCT Lindbloom (K):	5494
#CCT McCamy (K):	5501
#CCT Hernández-Andrés (K):	5517
#Melatonin: 0.863
#Chlorophyll a: 0.192
#Chlorophyll b: 1.072
#Beta Carotene: 0.197
#Manufacturer: Unknown
#Luminance manufacturer: Unknown
#Other data:
#Begin Processed Spectral Data
W	S
300.00000000	0.00000000
301.00000000	0.00000000
302.00000000	0.00000000
303.00000000	0.00000000
304.00000000	0.00000000
305.00000000	0.00000000
306.00000000	0.00000000
307.00000000	0.00000000
308.00000000	0.00000506
309.00000000	0.00000000
310.00000000	0.00000000
311.00000000	0.00000000
312.00000000	0.00000000
313.00000000	0.00000000
314.00000000	0.00000000
315.00000000	0.00000000
316.00000000	0.00000000
317.00000000	0.00000000
318.00000000	0.00000000
319.00000000	0.00000000
320.00000000	0.00122461
321.00000000	0.00000000
322.00000000	0.00000000
323.00000000	0.00000000
324.00000000	0.00104217
325.00000000	0.00000000
326.00000000	0.00000000
327.00000000	0.00000000
328.00000000	0.00000000
329.00000000	0.00000000
330.00000000	0.00000000
331.00000000	0.00000000
332.00000000	0.00000000
333.00000000	0.00000000
334.00000000	0.00000000
335.00000000	0.00000000
336.00000000	0.00000000
337.00000000	0.00036162
338.00000000	0.00120687
339.00000000	0.00000000
340.00000000	0.00000000
341.00000000	0.00299945
342.00000000	0.00117945
343.00000000	0.00471450
344.00000000	0.00638386
345.00000000	0.00535099
346.00000000	0.00031389
347.00000000	0.00738644
348.00000000	0.00732951
349.00000000	0.01055267
350.00000000	0.02290000
351.00000000	0.04786410
352.00000000	0.19233210
353.00000000	0.23793673
354.00000000	0.12597310
355.00000000	0.06095854
356.00000000	0.04004743
357.00000000	0.03626385
358.00000000	0.02789041
359.00000000	0.03276877
360.00000000	0.03374493
361.00000000	0.03744466
362.00000000	0.03824574
363.00000000	0.03578755
364.00000000	0.06939473
365.00000000	0.28695697
366.00000000	0.34343927
367.00000000	0.16642474
368.00000000	0.06582004
369.00000000	0.05149117
370.00000000	0.04227989
371.00000000	0.04627697
372.00000000	0.04358735
373.00000000	0.04153012
374.00000000	0.04406199
375.00000000	0.05468713
376.00000000	0.05767251
377.00000000	0.11374371
378.00000000	0.29690345
379.00000000	0.27838980
380.00000000	0.18253329
381.00000000	0.10838519
382.00000000	0.06494535
383.00000000	0.05047873
384.00000000	0.04849097
385.00000000	0.04666523
386.00000000	0.04615170
387.00000000	0.04645641
388.00000000	0.04665272
389.00000000	0.04852419
390.00000000	0.04896995
391.00000000	0.05254485
392.00000000	0.04934698
393.00000000	0.05218782
394.00000000	0.04963336
395.00000000	0.05188624
396.00000000	0.05546056
397.00000000	0.05141933
398.00000000	0.05595726
399.00000000	0.05436139
400.00000000	0.05482273
401.00000000	0.05608920
402.00000000	0.05579412
403.00000000	0.05527634
404.00000000	0.09208673
405.00000000	0.20893779
406.00000000	0.12839146
407.00000000	0.06374267
408.00000000	0.07197610
409.00000000	0.07246481
410.00000000	0.22519566
411.00000000	0.36145046
412.00000000	0.23950882
413.00000000	0.14545185
414.00000000	0.09018629
415.00000000	0.05971938
416.00000000	0.05182356
417.00000000	0.05054096
418.00000000	0.04827798
419.00000000	0.05224032
420.00000000	0.05054040
421.00000000	0.05362194
422.00000000	0.05283298
423.00000000	0.05400589
424.00000000	0.05643619
425.00000000	0.05789010
426.00000000	0.05745707
427.00000000	0.06015288
428.00000000	0.06044625
429.00000000	0.06298152
430.00000000	0.06563328
431.00000000	0.06697546
432.00000000	0.06634467
433.00000000	0.07270019
434.00000000	0.08989551
435.00000000	0.13947395
436.00000000	0.40057036
437.00000000	0.31240924
438.00000000	0.19117410
439.00000000	0.13986351
440.00000000	0.14090672
441.00000000	0.14610046
442.00000000	0.15526724
443.00000000	0.15921850
444.00000000	0.16222340
445.00000000	0.14765402
446.00000000	0.11512221
447.00000000	0.08543949
448.00000000	0.06304877
449.00000000	0.05848213
450.00000000	0.07227877
451.00000000	0.40752286
452.00000000	0.64695677
453.00000000	0.43151753
454.00000000	0.25572497
455.00000000	0.14318682
456.00000000	0.07244973
457.00000000	0.04125186
458.00000000	0.02627068
459.00000000	0.02143892
460.00000000	0.02027230
461.00000000	0.01831326
462.00000000	0.01701917
463.00000000	0.01720331
464.00000000	0.01856837
465.00000000	0.01519745
466.00000000	0.01840683
467.00000000	0.01795704
468.00000000	0.02073688
469.00000000	0.01729360
470.00000000	0.01775572
471.00000000	0.01527600
472.00000000	0.01616821
473.00000000	0.01634441
474.00000000	0.01701490
475.00000000	0.01582703
476.00000000	0.01598457
477.00000000	0.01467722
478.00000000	0.01549505
479.00000000	0.01472228
480.00000000	0.01345297
481.00000000	0.01394608
482.00000000	0.01442517
483.00000000	0.01420880
484.00000000	0.01560954
485.00000000	0.01538820
486.00000000	0.01454702
487.00000000	0.01664548
488.00000000	0.01624062
489.00000000	0.01514412
490.00000000	0.01664618
491.00000000	0.01711477
492.00000000	0.02003196
493.00000000	0.01847139
494.00000000	0.01698950
495.00000000	0.01675205
496.00000000	0.01657239
497.00000000	0.01765702
498.00000000	0.02452090
499.00000000	0.02737278
500.00000000	0.02195413
501.00000000	0.01835552
502.00000000	0.01654068
503.00000000	0.01581653
504.00000000	0.01504433
505.00000000	0.01473794
506.00000000	0.01652829
507.00000000	0.01563257
508.00000000	0.01713204
509.00000000	0.01651703
510.00000000	0.01623919
511.00000000	0.01805921
512.00000000	0.01700401
513.00000000	0.01618546
514.00000000	0.01734061
515.00000000	0.01865815
516.00000000	0.01923903
517.00000000	0.01929375
518.00000000	0.01868438
519.00000000	0.01934718
520.00000000	0.01933458
521.00000000	0.02169359
522.00000000	0.02290419
523.00000000	0.02228200
524.00000000	0.02046099
525.00000000	0.02043191
526.00000000	0.01860216
527.00000000	0.01838189
528.00000000	0.01876477
529.00000000	0.01865163
530.00000000	0.02136337
531.00000000	0.02206676
532.00000000	0.02505382
533.00000000	0.03122467
534.00000000	0.07285982
535.00000000	0.72736761
536.00000000	0.91726108
537.00000000	0.63734283
538.00000000	0.42534394
539.00000000	0.26139895
540.00000000	0.16869716
541.00000000	0.10059545
542.00000000	0.05650070
543.00000000	0.03629457
544.00000000	0.02788688
545.00000000	0.03763842
546.00000000	0.40271510
547.00000000	0.35640995
548.00000000	0.21659640
549.00000000	0.10684549
550.00000000	0.04401934
551.00000000	0.02713250
552.00000000	0.02210880
553.00000000	0.02310843
554.00000000	0.02251050
555.00000000	0.02015864
556.00000000	0.02038771
557.00000000	0.01806471
558.00000000	0.01860084
559.00000000	0.01729921
560.00000000	0.01869788
561.00000000	0.01754443
562.00000000	0.01714395
563.00000000	0.01688711
564.00000000	0.01791304
565.00000000	0.01683435
566.00000000	0.01815167
567.00000000	0.02063763
568.00000000	0.03512740
569.00000000	0.07112746
570.00000000	0.05459105
571.00000000	0.03753904
572.00000000	0.02916760
573.00000000	0.02176022
574.00000000	0.02217222
575.00000000	0.02385427
576.00000000	0.05042205
577.00000000	0.18582818
578.00000000	0.14011956
579.00000000	0.22098616
580.00000000	0.15401255
581.00000000	0.09672944
582.00000000	0.05754613
583.00000000	0.03316214
584.00000000	0.02776661
585.00000000	0.02710569
586.00000000	0.03003533
587.00000000	0.04473534
588.00000000	0.16153294
589.00000000	0.72901532
590.00000000	1.00000000
591.00000000	0.76415108
592.00000000	0.52428713
593.00000000	0.31418522
594.00000000	0.19417773
595.00000000	0.14199579
596.00000000	0.10957005
597.00000000	0.09111101
598.00000000	0.07855986
599.00000000	0.07089268
600.00000000	0.06265120
601.00000000	0.05839984
602.00000000	0.05343701
603.00000000	0.04943354
604.00000000	0.04369963
605.00000000	0.04287481
606.00000000	0.03994328
607.00000000	0.03564709
608.00000000	0.03323154
609.00000000	0.03355928
610.00000000	0.03408389
611.00000000	0.03247181
612.00000000	0.02995918
613.00000000	0.02866587
614.00000000	0.02502984
615.00000000	0.02901136
616.00000000	0.03688544
617.00000000	0.03223874
618.00000000	0.02841526
619.00000000	0.02604466
620.00000000	0.02407245
621.00000000	0.02549336
622.00000000	0.02455743
623.00000000	0.02248124
624.00000000	0.02421601
625.00000000	0.02218779
626.00000000	0.02122382
627.00000000	0.02274328
628.00000000	0.02354952
629.00000000	0.02046441
630.00000000	0.01966926
631.00000000	0.02057509
632.00000000	0.02160745
633.00000000	0.02036014
634.00000000	0.01919097
635.00000000	0.01890132
636.00000000	0.02007183
637.00000000	0.02112409
638.00000000	0.02008676
639.00000000	0.02086262
640.00000000	0.01809999
641.00000000	0.01868828
642.00000000	0.01891539
643.00000000	0.01682477
644.00000000	0.01802639
645.00000000	0.01860880
646.00000000	0.01847943
647.00000000	0.01978379
648.00000000	0.01935371
649.00000000	0.01854347
650.00000000	0.01712511
651.00000000	0.01818832
652.00000000	0.01675936
653.00000000	0.01851630
654.00000000	0.01915369
655.00000000	0.03926622
656.00000000	0.03229201
657.00000000	0.02629852
658.00000000	0.02168485
659.00000000	0.01840545
660.00000000	0.01753000
661.00000000	0.01811727
662.00000000	0.01605211
663.00000000	0.01515088
664.00000000	0.01674788
665.00000000	0.01645575
666.00000000	0.01639794
667.00000000	0.01723026
668.00000000	0.01698068
669.00000000	0.01699382
670.00000000	0.04069255
671.00000000	0.11950565
672.00000000	0.07042045
673.00000000	0.05266650
674.00000000	0.03290633
675.00000000	0.02116150
676.00000000	0.01834481
677.00000000	0.01659740
678.00000000	0.01583547
679.00000000	0.01459394
680.00000000	0.01584381
681.00000000	0.01604680
682.00000000	0.01492738
683.00000000	0.01659276
684.00000000	0.01626211
685.00000000	0.01652227
686.00000000	0.01932919
687.00000000	0.01692371
688.00000000	0.01469404
689.00000000	0.01556408
690.00000000	0.01737751
691.00000000	0.01818137
692.00000000	0.01394438
693.00000000	0.01582070
694.00000000	0.01882326
695.00000000	0.01722762
696.00000000	0.01235279
697.00000000	0.01472123
698.00000000	0.01161080
699.00000000	0.01170157
700.00000000	0.01483743
701.00000000	0.01302081
702.00000000	0.01456630
703.00000000	0.01283534
704.00000000	0.01297546
705.00000000	0.01352811
706.00000000	0.01376717
707.00000000	0.01305909
708.00000000	0.01470683
709.00000000	0.01482660
710.00000000	0.00806862
711.00000000	0.01353027
712.00000000	0.01112396
713.00000000	0.01244788
714.00000000	0.01284859
715.00000000	0.01267621
716.00000000	0.01125118
717.00000000	0.01452742
718.00000000	0.01318919
719.00000000	0.01383173
720.00000000	0.01541155
721.00000000	0.01281394
722.00000000	0.01255333
723.00000000	0.01508435
724.00000000	0.01345265
725.00000000	0.01271517
726.00000000	0.01053586
727.00000000	0.01153571
728.00000000	0.01241349
729.00000000	0.01204061
730.00000000	0.01464301
731.00000000	0.01203451
732.00000000	0.01266587
733.00000000	0.01388705
734.00000000	0.01001567
735.00000000	0.01354872
736.00000000	0.00890898
737.00000000	0.01209870
738.00000000	0.01170624
739.00000000	0.01383282
740.00000000	0.01427129
741.00000000	0.01468855
742.00000000	0.00881278
743.00000000	0.01430395
744.00000000	0.01436044
745.00000000	0.00806522
746.00000000	0.00979934
747.00000000	0.01210578
748.00000000	0.01577992
749.00000000	0.01151220
750.00000000	0.01166129
751.00000000	0.01134510
752.00000000	0.01076626
753.00000000	0.00680053
754.00000000	0.01231127
755.00000000	0.01069017
756.00000000	0.00812320
757.00000000	0.00774959
758.00000000	0.00795644
759.00000000	0.00523330
760.00000000	0.00876415
761.00000000	0.01384384
762.00000000	0.00823684
763.00000000	0.01052341
764.00000000	0.01184396
765.00000000	0.00978493
766.00000000	0.03199067
767.00000000	0.02978618
768.00000000	0.02388156
769.00000000	0.02466432
770.00000000	0.03223168
771.00000000	0.02125039
772.00000000	0.02026618
773.00000000	0.01315204
774.00000000	0.01368946
775.00000000	0.00461792
776.00000000	0.01389419
777.00000000	0.00835116
778.00000000	0.00183377
779.00000000	0.00688808
780.00000000	0.00156237
781.00000000	0.00493265
782.00000000	0.00862559
783.00000000	0.00853440
784.00000000	0.00577635
785.00000000	0.00834616
786.00000000	0.00577211
787.00000000	0.01282023
788.00000000	0.00831342
789.00000000	0.00565654
790.00000000	0.00565642
791.00000000	0.00408412
792.00000000	0.00896516
793.00000000	0.00673912
794.00000000	0.00095041
795.00000000	0.01151123
796.00000000	0.01351072
797.00000000	0.00634954
798.00000000	0.01758326
799.00000000	0.00880450
800.00000000	0.01599597
801.00000000	0.01156245
802.00000000	0.00629435
803.00000000	0.01255805
804.00000000	0.00704973
805.00000000	0.00233444
806.00000000	0.00734329
807.00000000	0.01062625
808.00000000	0.00783793
809.00000000	0.00826723
810.00000000	0.00268185
811.00000000	0.00746815
812.00000000	0.00268539
813.00000000	0.00591085
814.00000000	0.00455238
815.00000000	0.00100410
816.00000000	0.01070318
817.00000000	0.01800094
818.00000000	0.18802910
819.00000000	0.36800375
820.00000000	0.31690896
821.00000000	0.17384009
822.00000000	0.09699953
823.00000000	0.05059346
824.00000000	0.01993045
825.00000000	0.01234008
826.00000000	0.01482669
827.00000000	0.01047621
828.00000000	0.01168872
829.00000000	0.01786498
830.00000000	0.01764606
831.00000000	0.00375886
832.00000000	0.01212418
833.00000000	0.00335652
834.00000000	0.00939821
835.00000000	0.00000000
836.00000000	0.00044305
837.00000000	0.00118790
838.00000000	0.00030590
839.00000000	0.00161821
840.00000000	0.00281230
841.00000000	0.00055352
842.00000000	0.00017785
843.00000000	0.00778780
844.00000000	0.00619014
845.00000000	0.00783567
846.00000000	0.00000000
847.00000000	0.00521016
848.00000000	0.00000000
849.00000000	0.00558636
850.00000000	0.00000000
851.00000000	0.00328773
852.00000000	0.00382731
853.00000000	0.00000000
854.00000000	0.00000000
855.00000000	0.00000000
856.00000000	0.01546394
857.00000000	0.00028215
858.00000000	0.00649487
859.00000000	0.00425874
860.00000000	0.00000082
861.00000000	0.00108945
862.00000000	0.00065007
863.00000000	0.00923109
864.00000000	0.00816835
865.00000000	0.00000000
866.00000000	0.00592407
867.00000000	0.00000000
868.00000000	0.00250534
869.00000000	0.00008618
870.00000000	0.00068820
871.00000000	0.00063594
872.00000000	0.00588712
873.00000000	0.00135586
874.00000000	0.00000000
875.00000000	0.01328274
876.00000000	0.00000000
877.00000000	0.00000000
878.00000000	0.00613869
879.00000000	0.00380216
880.00000000	0.00000000
881.00000000	0.00742671
882.00000000	0.00199054
883.00000000	0.00016193
884.00000000	0.00000000
885.00000000	0.00536197
886.00000000	0.00000000
887.00000000	0.00000000
888.00000000	0.00000000
889.00000000	0.00005201
890.00000000	0.00000000
891.00000000	0.00192378
892.00000000	0.00082880
893.00000000	0.00813730
894.00000000	0.00000000
895.00000000	0.00078949
896.00000000	0.00000000
897.00000000	0.00000000
898.00000000	0.00000000
899.00000000	0.00000000
900.00000000	0.00000000
