#LICA Lamps Spectra Database
#Website 1: https://guaix.fis.ucm.es/lamps_spectra
#Website 2: http://carlostapia.es/lamparas/lamps.html
#Latest update: 2017/12/15
#Tester: Carlos Eugenio Tapia Ayuga
#Correct for Electrical Dark: Yes (JAZA2310)
#Correct for Detector Non-linearity: Yes (JAZA2310)
#Correct for Flux: Yes
#Start wavelength (nm): 300
#End wavelength (nm): 900
#Steps (nm):	1
#Locus: D65 sRGB Gamma 1 CIE1931
#XYZ coordinates: 0.0581	0.0623	0.0383
#xyY coordinates: 0.3663	0.3926	0.0623
#sRGB: 19	16	8
#CCT Lindbloom (K):	4495
#CCT McCamy (K):	4484
#CCT Hernández-Andrés (K):	4464
#Melatonin: 0.535
#Chlorophyll a: 0.183
#Chlorophyll b: 0.503
#Beta Carotene: 0.185
#Manufacturer: Unknown
#Luminance manufacturer: Unknown
#Other data: Madrid streetlamp at Facultad de Telecomunicaciones
#Begin Processed Spectral Data
W	S
300.00000000	0.02434076
301.00000000	0.00653972
302.00000000	0.02384466
303.00000000	0.04999328
304.00000000	0.00000000
305.00000000	0.00374302
306.00000000	0.00000000
307.00000000	0.02251045
308.00000000	0.00000000
309.00000000	0.00000000
310.00000000	0.00083430
311.00000000	0.00463537
312.00000000	0.05449919
313.00000000	0.17724292
314.00000000	0.13334749
315.00000000	0.02176929
316.00000000	0.01785716
317.00000000	0.01225612
318.00000000	0.02909698
319.00000000	0.00286859
320.00000000	0.00000000
321.00000000	0.00000000
322.00000000	0.00209424
323.00000000	0.00000000
324.00000000	0.00658080
325.00000000	0.00122650
326.00000000	0.00504715
327.00000000	0.01128138
328.00000000	0.00757800
329.00000000	0.00000000
330.00000000	0.00610573
331.00000000	0.00406428
332.00000000	0.01325953
333.00000000	0.00937774
334.00000000	0.06971108
335.00000000	0.06395455
336.00000000	0.01898191
337.00000000	0.00738047
338.00000000	0.01381415
339.00000000	0.01513953
340.00000000	0.01213933
341.00000000	0.00449755
342.00000000	0.00317862
343.00000000	0.00926715
344.00000000	0.00400791
345.00000000	0.01642335
346.00000000	0.00474046
347.00000000	0.00939900
348.00000000	0.00090668
349.00000000	0.00819137
350.00000000	0.01275867
351.00000000	0.00511378
352.00000000	0.00719871
353.00000000	0.00625406
354.00000000	0.02105943
355.00000000	0.00592014
356.00000000	0.00789973
357.00000000	0.01287021
358.00000000	0.00576155
359.00000000	0.00827377
360.00000000	0.01474757
361.00000000	0.01056077
362.00000000	0.00942145
363.00000000	0.02198808
364.00000000	0.19246509
365.00000000	0.92176674
366.00000000	1.00000000
367.00000000	0.43348748
368.00000000	0.08819571
369.00000000	0.02786738
370.00000000	0.01958095
371.00000000	0.01715542
372.00000000	0.01802317
373.00000000	0.00610406
374.00000000	0.00757561
375.00000000	0.00946611
376.00000000	0.00641743
377.00000000	0.00806478
378.00000000	0.00592158
379.00000000	0.00308714
380.00000000	0.00987168
381.00000000	0.00368450
382.00000000	0.00361166
383.00000000	0.00357965
384.00000000	0.00544053
385.00000000	0.00545916
386.00000000	0.00462151
387.00000000	0.00090620
388.00000000	0.00587046
389.00000000	0.00103255
390.00000000	0.00922273
391.00000000	0.01704531
392.00000000	0.01407831
393.00000000	0.00061719
394.00000000	0.00456658
395.00000000	0.00540900
396.00000000	0.00000000
397.00000000	0.00638805
398.00000000	0.00180165
399.00000000	0.00422263
400.00000000	0.00272433
401.00000000	0.00557357
402.00000000	0.01097278
403.00000000	0.01431693
404.00000000	0.14015401
405.00000000	0.39527645
406.00000000	0.20565989
407.00000000	0.07343142
408.00000000	0.09068429
409.00000000	0.04833661
410.00000000	0.01600703
411.00000000	0.01356622
412.00000000	0.00740985
413.00000000	0.01028991
414.00000000	0.00457995
415.00000000	0.00666774
416.00000000	0.00981412
417.00000000	0.01071435
418.00000000	0.00572309
419.00000000	0.00436738
420.00000000	0.00441563
421.00000000	0.00927050
422.00000000	0.00739576
423.00000000	0.00719560
424.00000000	0.00516418
425.00000000	0.00701002
426.00000000	0.00852218
427.00000000	0.00513624
428.00000000	0.00521195
429.00000000	0.00697395
430.00000000	0.00740149
431.00000000	0.00877345
432.00000000	0.01205573
433.00000000	0.01966813
434.00000000	0.06208889
435.00000000	0.21853774
436.00000000	0.75039739
437.00000000	0.50641874
438.00000000	0.17981295
439.00000000	0.04575679
440.00000000	0.01778957
441.00000000	0.01391327
442.00000000	0.01027606
443.00000000	0.00754265
444.00000000	0.00890267
445.00000000	0.00619219
446.00000000	0.00550120
447.00000000	0.00758421
448.00000000	0.00737570
449.00000000	0.00862369
450.00000000	0.00835642
451.00000000	0.00929414
452.00000000	0.00827998
453.00000000	0.00515224
454.00000000	0.00700978
455.00000000	0.00637826
456.00000000	0.00886756
457.00000000	0.00319152
458.00000000	0.00607898
459.00000000	0.00339717
460.00000000	0.00699473
461.00000000	0.00807481
462.00000000	0.00623184
463.00000000	0.00371723
464.00000000	0.00495232
465.00000000	0.00654951
466.00000000	0.00836669
467.00000000	0.00709099
468.00000000	0.00786558
469.00000000	0.00589793
470.00000000	0.00650771
471.00000000	0.00666560
472.00000000	0.00470917
473.00000000	0.00586234
474.00000000	0.00945561
475.00000000	0.00452717
476.00000000	0.00427518
477.00000000	0.00880068
478.00000000	0.00935099
479.00000000	0.00606226
480.00000000	0.00672077
481.00000000	0.00545009
482.00000000	0.00584467
483.00000000	0.00782426
484.00000000	0.00758182
485.00000000	0.00895283
486.00000000	0.00753358
487.00000000	0.00741391
488.00000000	0.00799217
489.00000000	0.00533305
490.00000000	0.00724051
491.00000000	0.01514215
492.00000000	0.02190042
493.00000000	0.01463770
494.00000000	0.00973888
495.00000000	0.00603718
496.00000000	0.00706256
497.00000000	0.00951412
498.00000000	0.00751304
499.00000000	0.00749417
500.00000000	0.00863850
501.00000000	0.00491649
502.00000000	0.00350107
503.00000000	0.00788278
504.00000000	0.00649076
505.00000000	0.00455296
506.00000000	0.00579690
507.00000000	0.00560510
508.00000000	0.00374302
509.00000000	0.00648264
510.00000000	0.00655477
511.00000000	0.00573933
512.00000000	0.00726917
513.00000000	0.00736901
514.00000000	0.00539324
515.00000000	0.00687554
516.00000000	0.00677905
517.00000000	0.00578663
518.00000000	0.00710866
519.00000000	0.00617165
520.00000000	0.00569897
521.00000000	0.00243030
522.00000000	0.00548926
523.00000000	0.00602572
524.00000000	0.00611696
525.00000000	0.00545653
526.00000000	0.00483361
527.00000000	0.00552198
528.00000000	0.00743828
529.00000000	0.00718605
530.00000000	0.00644514
531.00000000	0.00547397
532.00000000	0.00732148
533.00000000	0.00967415
534.00000000	0.00788445
535.00000000	0.01057963
536.00000000	0.01278804
537.00000000	0.01385594
538.00000000	0.01385594
539.00000000	0.01431382
540.00000000	0.01144714
541.00000000	0.01137668
542.00000000	0.01162269
543.00000000	0.01180613
544.00000000	0.01282578
545.00000000	0.06716948
546.00000000	0.87576369
547.00000000	0.81890228
548.00000000	0.38320543
549.00000000	0.17889481
550.00000000	0.06203181
551.00000000	0.02845304
552.00000000	0.01820230
553.00000000	0.01663306
554.00000000	0.01406709
555.00000000	0.01161410
556.00000000	0.01017598
557.00000000	0.00953538
558.00000000	0.01005966
559.00000000	0.01137763
560.00000000	0.00927336
561.00000000	0.01132556
562.00000000	0.01066060
563.00000000	0.01048027
564.00000000	0.01133870
565.00000000	0.00796375
566.00000000	0.00914916
567.00000000	0.01180088
568.00000000	0.01407139
569.00000000	0.01558880
570.00000000	0.01415594
571.00000000	0.01221433
572.00000000	0.01350651
573.00000000	0.01585082
574.00000000	0.01672955
575.00000000	0.02515500
576.00000000	0.12423893
577.00000000	0.59288326
578.00000000	0.46985554
579.00000000	0.71654537
580.00000000	0.53225088
581.00000000	0.24361296
582.00000000	0.11929999
583.00000000	0.04716003
584.00000000	0.02444251
585.00000000	0.02001064
586.00000000	0.01816624
587.00000000	0.01946128
588.00000000	0.01682032
589.00000000	0.01675009
590.00000000	0.01645272
591.00000000	0.01570656
592.00000000	0.01709523
593.00000000	0.02355828
594.00000000	0.03261763
595.00000000	0.03456020
596.00000000	0.02366290
597.00000000	0.02004623
598.00000000	0.01839434
599.00000000	0.01599055
600.00000000	0.01510943
601.00000000	0.01060543
602.00000000	0.01271328
603.00000000	0.01274099
604.00000000	0.01217181
605.00000000	0.01195923
606.00000000	0.01265333
607.00000000	0.01029254
608.00000000	0.01394695
609.00000000	0.02281546
610.00000000	0.01938055
611.00000000	0.01908318
612.00000000	0.02000921
613.00000000	0.02264086
614.00000000	0.02907405
615.00000000	0.06537165
616.00000000	0.07913206
617.00000000	0.05190551
618.00000000	0.05419274
619.00000000	0.09553104
620.00000000	0.09989913
621.00000000	0.06172632
622.00000000	0.04469223
623.00000000	0.02834006
624.00000000	0.02177741
625.00000000	0.02053969
626.00000000	0.01695933
627.00000000	0.01927187
628.00000000	0.01367848
629.00000000	0.01571898
630.00000000	0.01136020
631.00000000	0.01125773
632.00000000	0.00875410
633.00000000	0.01009835
634.00000000	0.00983036
635.00000000	0.01011435
636.00000000	0.00974485
637.00000000	0.00919932
638.00000000	0.01096920
639.00000000	0.00750277
640.00000000	0.01060495
641.00000000	0.01029707
642.00000000	0.00885012
643.00000000	0.01016905
644.00000000	0.00857210
645.00000000	0.00977901
646.00000000	0.00874192
647.00000000	0.00737020
648.00000000	0.01015185
649.00000000	0.00956070
650.00000000	0.00801343
651.00000000	0.01016451
652.00000000	0.01304959
653.00000000	0.00998896
654.00000000	0.01007542
655.00000000	0.01174976
656.00000000	0.01172994
657.00000000	0.00757872
658.00000000	0.00618312
659.00000000	0.00952439
660.00000000	0.01411844
661.00000000	0.01265309
662.00000000	0.00809153
663.00000000	0.00797521
664.00000000	0.00707212
665.00000000	0.01126418
666.00000000	0.00633168
667.00000000	0.01230772
668.00000000	0.00821502
669.00000000	0.00729568
670.00000000	0.01181234
671.00000000	0.01209992
672.00000000	0.01420658
673.00000000	0.00706065
674.00000000	0.00425631
675.00000000	0.00333029
676.00000000	0.00867456
677.00000000	0.00926787
678.00000000	0.00782736
679.00000000	0.00769671
680.00000000	0.00829718
681.00000000	0.00838675
682.00000000	0.00807648
683.00000000	0.00898889
684.00000000	0.00742609
685.00000000	0.00618670
686.00000000	0.00985353
687.00000000	0.01093887
688.00000000	0.00652587
689.00000000	0.00484388
690.00000000	0.01496158
691.00000000	0.01896089
692.00000000	0.01997171
693.00000000	0.01594612
694.00000000	0.01103775
695.00000000	0.00337687
696.00000000	0.01014540
697.00000000	0.00957240
698.00000000	0.02802574
699.00000000	0.03844797
700.00000000	0.02638531
701.00000000	0.01935046
702.00000000	0.01841416
703.00000000	0.02051222
704.00000000	0.02262581
705.00000000	0.02870766
706.00000000	0.02104152
707.00000000	0.01850660
708.00000000	0.01658242
709.00000000	0.01212715
710.00000000	0.00866023
711.00000000	0.00943984
712.00000000	0.00558169
713.00000000	0.00812019
714.00000000	0.00242672
715.00000000	0.00956452
716.00000000	0.00865378
717.00000000	0.00676639
718.00000000	0.01298319
719.00000000	0.01456963
720.00000000	0.00884200
721.00000000	0.00345449
722.00000000	0.00716885
723.00000000	0.01260174
724.00000000	0.00000000
725.00000000	0.00677809
726.00000000	0.00441754
727.00000000	0.00447414
728.00000000	0.00460527
729.00000000	0.01019604
730.00000000	0.00982320
731.00000000	0.00365465
732.00000000	0.00024076
733.00000000	0.01227786
734.00000000	0.00000000
735.00000000	0.01041841
736.00000000	0.00477080
737.00000000	0.00377766
738.00000000	0.01051873
739.00000000	0.00549021
740.00000000	0.00726583
741.00000000	0.00769098
742.00000000	0.00214726
743.00000000	0.00487589
744.00000000	0.01511660
745.00000000	0.00449588
746.00000000	0.01369424
747.00000000	0.00295744
748.00000000	0.00204742
749.00000000	0.00749894
750.00000000	0.00721352
751.00000000	0.01283653
752.00000000	0.00377575
753.00000000	0.00860124
754.00000000	0.00322496
755.00000000	0.00465448
756.00000000	0.00448752
757.00000000	0.01164156
758.00000000	0.00091504
759.00000000	0.00659537
760.00000000	0.00000000
761.00000000	0.00000000
762.00000000	0.00424198
763.00000000	0.00000000
764.00000000	0.00781996
765.00000000	0.00384095
766.00000000	0.00179066
767.00000000	0.01112708
768.00000000	0.00000000
769.00000000	0.00699139
770.00000000	0.00504715
771.00000000	0.00000000
772.00000000	0.00468433
773.00000000	0.00309837
774.00000000	0.00350584
775.00000000	0.00973028
776.00000000	0.01149371
777.00000000	0.00505359
778.00000000	0.00000000
779.00000000	0.00229320
780.00000000	0.00000000
781.00000000	0.01045304
782.00000000	0.00000000
783.00000000	0.01104874
784.00000000	0.00000000
785.00000000	0.00783716
786.00000000	0.00000000
787.00000000	0.00390043
788.00000000	0.00581983
789.00000000	0.00453433
790.00000000	0.00251366
791.00000000	0.00606680
792.00000000	0.01544310
793.00000000	0.00000000
794.00000000	0.00923300
795.00000000	0.01042367
796.00000000	0.00439795
797.00000000	0.00000000
798.00000000	0.00000000
799.00000000	0.01371574
800.00000000	0.00649888
801.00000000	0.00339741
802.00000000	0.00281772
803.00000000	0.00000000
804.00000000	0.00000000
805.00000000	0.00000000
806.00000000	0.00698159
807.00000000	0.01071005
808.00000000	0.00224424
809.00000000	0.01030782
810.00000000	0.00596075
811.00000000	0.00000000
812.00000000	0.01085216
813.00000000	0.00793532
814.00000000	0.00000000
815.00000000	0.00000000
816.00000000	0.00871039
817.00000000	0.00000000
818.00000000	0.02070928
819.00000000	0.02431496
820.00000000	0.02235782
821.00000000	0.01812850
822.00000000	0.02225177
823.00000000	0.00271525
824.00000000	0.00000000
825.00000000	0.00490575
826.00000000	0.00000000
827.00000000	0.00900752
828.00000000	0.01856559
829.00000000	0.00568607
830.00000000	0.00477653
831.00000000	0.00123414
832.00000000	0.01671331
833.00000000	0.00000000
834.00000000	0.00000000
835.00000000	0.00000000
836.00000000	0.00621703
837.00000000	0.00000000
838.00000000	0.00000000
839.00000000	0.01629676
840.00000000	0.01367513
841.00000000	0.00000000
842.00000000	0.00000000
843.00000000	0.00000000
844.00000000	0.00195188
845.00000000	0.01104062
846.00000000	0.00399477
847.00000000	0.00204504
848.00000000	0.00000000
849.00000000	0.00000000
850.00000000	0.01086434
851.00000000	0.00000000
852.00000000	0.00068980
853.00000000	0.00211812
854.00000000	0.00261541
855.00000000	0.00000000
856.00000000	0.00000000
857.00000000	0.00000000
858.00000000	0.00000000
859.00000000	0.01339687
860.00000000	0.00000000
861.00000000	0.00000000
862.00000000	0.00000000
863.00000000	0.00000000
864.00000000	0.00068025
865.00000000	0.00000000
866.00000000	0.02271825
867.00000000	0.00000000
868.00000000	0.00637324
869.00000000	0.00463680
870.00000000	0.00000000
871.00000000	0.00211096
872.00000000	0.00000000
873.00000000	0.04075479
874.00000000	0.00000000
875.00000000	0.00021926
876.00000000	0.00000000
877.00000000	0.00314757
878.00000000	0.01121163
879.00000000	0.01157660
880.00000000	0.00000000
881.00000000	0.00902974
882.00000000	0.01200772
883.00000000	0.00000000
884.00000000	0.01191385
885.00000000	0.00000000
886.00000000	0.00395560
887.00000000	0.00000000
888.00000000	0.00691209
889.00000000	0.01516054
890.00000000	0.00000000
891.00000000	0.00000000
892.00000000	0.00654163
893.00000000	0.01737469
894.00000000	0.00000000
895.00000000	0.00312989
896.00000000	0.00000000
897.00000000	0.00134735
898.00000000	0.00000000
899.00000000	0.00000000
900.00000000	0.00676997
