#LICA Lamps Spectra Database
#Website 1: https://guaix.fis.ucm.es/lamps_spectra
#Website 2: http://carlostapia.es/lamparas/lamps.html
#Latest update: 2018/04/28
#Tester: Carlos Eugenio Tapia Ayuga
#Correct for Electrical Dark: Yes (JAZA2310)
#Correct for Detector Non-linearity: Yes (JAZA2310)
#Correct for Flux: Yes
#Start wavelength (nm): 300
#End wavelength (nm): 900
#Steps (nm):	1
#Locus: D65 sRGB Gamma 1 CIE1931
#XYZ coordinates: 0.1083	0.0963	0.0372
#xyY coordinates: 0.4478	0.3983	0.0963
#sRGB: 47	20	7
#CCT Lindbloom (K):	2776
#CCT McCamy (K):	2776
#CCT Hernández-Andrés (K):	2708
#Melatonin: 0.343
#Chlorophyll a: 0.087
#Chlorophyll b: 0.387
#Beta Carotene: 0.086
#Manufacturer: Philips
#Luminance manufacturer: 1220 lm
#Other data: Master PL Electronics PLE-R 20W/827. 2700K. 60 lm/W.
#Begin Processed Spectral Data
W	S
475.00000000	0.00168351
476.00000000	0.00145796
477.00000000	0.00132590
478.00000000	0.00189916
479.00000000	0.00260359
480.00000000	0.00484792
481.00000000	0.00691758
482.00000000	0.01183704
483.00000000	0.02012919
484.00000000	0.03255308
485.00000000	0.04851419
486.00000000	0.06857272
487.00000000	0.08194505
488.00000000	0.08343546
489.00000000	0.07849509
490.00000000	0.06782595
491.00000000	0.06072589
492.00000000	0.05941448
493.00000000	0.05088443
494.00000000	0.04442352
495.00000000	0.03896484
496.00000000	0.03498218
497.00000000	0.03055353
498.00000000	0.02660503
499.00000000	0.02271630
500.00000000	0.01888531
501.00000000	0.01540971
502.00000000	0.01212177
503.00000000	0.00957207
504.00000000	0.00714394
505.00000000	0.00578603
506.00000000	0.00465511
507.00000000	0.00345434
508.00000000	0.00299294
509.00000000	0.00313668
510.00000000	0.00286125
511.00000000	0.00233812
512.00000000	0.00226001
513.00000000	0.00236337
514.00000000	0.00197952
515.00000000	0.00180331
516.00000000	0.00144158
517.00000000	0.00124945
518.00000000	0.00097014
519.00000000	0.00097111
520.00000000	0.00133914
521.00000000	0.00103338
522.00000000	0.00068358
523.00000000	0.00068117
524.00000000	0.00043369
525.00000000	0.00078674
526.00000000	0.00107230
527.00000000	0.00145332
528.00000000	0.00200617
529.00000000	0.00208229
530.00000000	0.00255294
531.00000000	0.00289465
532.00000000	0.00449887
533.00000000	0.01159756
534.00000000	0.01868260
535.00000000	0.01627763
536.00000000	0.01868738
537.00000000	0.02880316
538.00000000	0.04992571
539.00000000	0.06995258
540.00000000	0.11787558
541.00000000	0.23851065
542.00000000	0.37948507
543.00000000	0.36881568
544.00000000	0.35325232
545.00000000	0.36815357
546.00000000	0.64776057
547.00000000	0.58345424
548.00000000	0.38653758
549.00000000	0.28543017
550.00000000	0.19780471
551.00000000	0.14608995
552.00000000	0.10950167
553.00000000	0.08310463
554.00000000	0.06353141
555.00000000	0.04559197
556.00000000	0.03296942
557.00000000	0.02480984
558.00000000	0.01940474
559.00000000	0.01505489
560.00000000	0.01250796
561.00000000	0.01114799
562.00000000	0.01058779
563.00000000	0.00993078
564.00000000	0.00922815
565.00000000	0.00854045
566.00000000	0.00740027
567.00000000	0.00741699
568.00000000	0.00701315
569.00000000	0.00720579
570.00000000	0.00643252
571.00000000	0.00537381
572.00000000	0.00427706
573.00000000	0.00423916
574.00000000	0.00417388
575.00000000	0.00557296
576.00000000	0.01960170
577.00000000	0.12075688
578.00000000	0.08789587
579.00000000	0.13645858
580.00000000	0.12009939
581.00000000	0.08958854
582.00000000	0.08488759
583.00000000	0.09262521
584.00000000	0.09414634
585.00000000	0.09352769
586.00000000	0.09075538
587.00000000	0.12692866
588.00000000	0.13639050
589.00000000	0.09190178
590.00000000	0.07390879
591.00000000	0.06785052
592.00000000	0.07864504
593.00000000	0.11704027
594.00000000	0.11201705
595.00000000	0.08164861
596.00000000	0.06558163
597.00000000	0.05325018
598.00000000	0.05334882
599.00000000	0.07054931
600.00000000	0.08039964
601.00000000	0.06624285
602.00000000	0.05043658
603.00000000	0.03946333
604.00000000	0.03486354
605.00000000	0.03496221
606.00000000	0.03869013
607.00000000	0.04786319
608.00000000	0.06770655
609.00000000	0.11267064
610.00000000	0.27191307
611.00000000	0.86718118
612.00000000	1.00000000
613.00000000	0.70299480
614.00000000	0.56798338
615.00000000	0.42582515
616.00000000	0.27750586
617.00000000	0.18310589
618.00000000	0.12763526
619.00000000	0.09415259
620.00000000	0.08218661
621.00000000	0.08060967
622.00000000	0.08124959
623.00000000	0.08718087
624.00000000	0.09308573
625.00000000	0.09793889
626.00000000	0.10225331
627.00000000	0.10329684
628.00000000	0.09945910
629.00000000	0.09644371
630.00000000	0.11564381
631.00000000	0.16150638
632.00000000	0.12996514
633.00000000	0.07896950
634.00000000	0.05470857
635.00000000	0.03485768
636.00000000	0.02398042
637.00000000	0.01978385
638.00000000	0.01780255
639.00000000	0.01502137
640.00000000	0.01485054
641.00000000	0.01415589
642.00000000	0.01398553
643.00000000	0.01433346
644.00000000	0.01452390
645.00000000	0.01431689
646.00000000	0.01408298
647.00000000	0.01378573
648.00000000	0.01362656
649.00000000	0.01713198
650.00000000	0.03625444
651.00000000	0.04594015
652.00000000	0.03424941
653.00000000	0.03229448
654.00000000	0.02647772
655.00000000	0.02047563
656.00000000	0.01714369
657.00000000	0.01758449
658.00000000	0.01919920
659.00000000	0.01549603
660.00000000	0.01243146
661.00000000	0.01298682
662.00000000	0.02446033
663.00000000	0.02878164
664.00000000	0.02103205
665.00000000	0.01648226
666.00000000	0.01389715
667.00000000	0.01244608
668.00000000	0.01095688
669.00000000	0.01080622
670.00000000	0.01000047
671.00000000	0.00978454
672.00000000	0.01012445
673.00000000	0.00835306
674.00000000	0.00827464
675.00000000	0.00845943
676.00000000	0.00818961
677.00000000	0.00701038
678.00000000	0.00745979
679.00000000	0.00844016
680.00000000	0.00859050
681.00000000	0.00966148
682.00000000	0.00936065
683.00000000	0.00883091
684.00000000	0.00920916
685.00000000	0.00883945
686.00000000	0.01228719
687.00000000	0.02511974
688.00000000	0.02923887
689.00000000	0.02156983
690.00000000	0.01669333
691.00000000	0.01324876
692.00000000	0.00820800
693.00000000	0.01605665
694.00000000	0.02096985
695.00000000	0.01309344
696.00000000	0.02027300
697.00000000	0.01811446
698.00000000	0.00800064
699.00000000	0.00559596
700.00000000	0.00378839
701.00000000	0.00400481
702.00000000	0.00478410
703.00000000	0.00701437
704.00000000	0.01105812
705.00000000	0.01840411
706.00000000	0.05337573
707.00000000	0.08340926
708.00000000	0.07499116
709.00000000	0.09416823
710.00000000	0.06355090
711.00000000	0.05103926
712.00000000	0.07588501
713.00000000	0.06106989
714.00000000	0.03340943
715.00000000	0.02158794
716.00000000	0.00928722
717.00000000	0.00382474
718.00000000	0.00345636
719.00000000	0.00202755
720.00000000	0.00115066
721.00000000	0.00137812
722.00000000	0.00023374
723.00000000	0.00187135
724.00000000	0.00001509
725.00000000	0.00077068
