#LICA Lamps Spectra Database
#Website 1: https://guaix.fis.ucm.es/lamps_spectra
#Website 2: http://carlostapia.es/lamparas/lamps.html
#Latest update: 2018/04/28
#Tester: Carlos Eugenio Tapia Ayuga
#Correct for Electrical Dark: Yes (JAZA2310)
#Correct for Detector Non-linearity: Yes (JAZA2310)
#Correct for Flux: Yes
#Start wavelength (nm): 300
#End wavelength (nm): 900
#Steps (nm):	1
#Locus: D65 sRGB Gamma 1 CIE1931
#XYZ coordinates: 0.0970	0.0843	0.0199
#xyY coordinates: 0.4820	0.4191	0.0843
#sRGB: 45	17	2
#CCT Lindbloom (K):	2478
#CCT McCamy (K):	2471
#CCT Hernández-Andrés (K):	2342
#Melatonin: 0.239
#Chlorophyll a: 0.073
#Chlorophyll b: 0.318
#Beta Carotene: 0.072
#Manufacturer: Westinghouse
#Luminance manufacturer: Unknown
#Other data: Micro Candle. CFL+difusser.
#Begin Processed Spectral Data
#W	S
475.00000000	0.00052144
476.00000000	0.00125865
477.00000000	0.00119424
478.00000000	0.00113709
479.00000000	0.00200224
480.00000000	0.00344967
481.00000000	0.00496728
482.00000000	0.00890994
483.00000000	0.01616368
484.00000000	0.02651655
485.00000000	0.03953776
486.00000000	0.05750144
487.00000000	0.07159313
488.00000000	0.07501595
489.00000000	0.06991147
490.00000000	0.06048010
491.00000000	0.05300989
492.00000000	0.04867782
493.00000000	0.04330090
494.00000000	0.03865382
495.00000000	0.03345175
496.00000000	0.02917888
497.00000000	0.02619174
498.00000000	0.02265383
499.00000000	0.01900550
500.00000000	0.01618169
501.00000000	0.01318400
502.00000000	0.01038271
503.00000000	0.00835640
504.00000000	0.00611651
505.00000000	0.00516307
506.00000000	0.00359848
507.00000000	0.00326044
508.00000000	0.00270437
509.00000000	0.00259062
510.00000000	0.00252619
511.00000000	0.00216692
512.00000000	0.00176297
513.00000000	0.00199771
514.00000000	0.00161037
515.00000000	0.00161979
516.00000000	0.00140915
517.00000000	0.00141899
518.00000000	0.00113607
519.00000000	0.00091319
520.00000000	0.00123384
521.00000000	0.00092809
522.00000000	0.00101201
523.00000000	0.00071355
524.00000000	0.00091493
525.00000000	0.00079900
526.00000000	0.00108167
527.00000000	0.00133291
528.00000000	0.00177810
529.00000000	0.00182036
530.00000000	0.00203180
531.00000000	0.00250441
532.00000000	0.00308663
533.00000000	0.00827591
534.00000000	0.01335200
535.00000000	0.01196536
536.00000000	0.01370886
537.00000000	0.02183450
538.00000000	0.03909550
539.00000000	0.05666800
540.00000000	0.09720291
541.00000000	0.19661375
542.00000000	0.32218877
543.00000000	0.31865747
544.00000000	0.30513620
545.00000000	0.31623786
546.00000000	0.52459120
547.00000000	0.47982990
548.00000000	0.33662004
549.00000000	0.25025787
550.00000000	0.17114447
551.00000000	0.12529869
552.00000000	0.09315264
553.00000000	0.06934995
554.00000000	0.05126644
555.00000000	0.03676564
556.00000000	0.02688573
557.00000000	0.01993879
558.00000000	0.01555287
559.00000000	0.01258329
560.00000000	0.01011141
561.00000000	0.00902990
562.00000000	0.00811675
563.00000000	0.00783945
564.00000000	0.00719514
565.00000000	0.00670328
566.00000000	0.00537618
567.00000000	0.00548279
568.00000000	0.00540265
569.00000000	0.00540996
570.00000000	0.00497771
571.00000000	0.00372521
572.00000000	0.00322383
573.00000000	0.00337600
574.00000000	0.00333099
575.00000000	0.00426040
576.00000000	0.01272177
577.00000000	0.06175478
578.00000000	0.05083832
579.00000000	0.07902581
580.00000000	0.08038175
581.00000000	0.07200185
582.00000000	0.06747316
583.00000000	0.07596022
584.00000000	0.07791779
585.00000000	0.07577331
586.00000000	0.07431371
587.00000000	0.11136198
588.00000000	0.12321061
589.00000000	0.08375567
590.00000000	0.06664016
591.00000000	0.05894602
592.00000000	0.06970482
593.00000000	0.10753137
594.00000000	0.10366048
595.00000000	0.07431635
596.00000000	0.05790680
597.00000000	0.04751390
598.00000000	0.04749371
599.00000000	0.06622557
600.00000000	0.07812480
601.00000000	0.06531661
602.00000000	0.04932604
603.00000000	0.03737835
604.00000000	0.03299617
605.00000000	0.03342390
606.00000000	0.03666232
607.00000000	0.04570611
608.00000000	0.06331587
609.00000000	0.10570100
610.00000000	0.26867323
611.00000000	0.86485115
612.00000000	1.00000000
613.00000000	0.71953966
614.00000000	0.57877895
615.00000000	0.42763719
616.00000000	0.27550412
617.00000000	0.17987964
618.00000000	0.12273748
619.00000000	0.08851597
620.00000000	0.07521077
621.00000000	0.07323049
622.00000000	0.07115174
623.00000000	0.07889074
624.00000000	0.08527002
625.00000000	0.09067986
626.00000000	0.09373330
627.00000000	0.09369528
628.00000000	0.09226351
629.00000000	0.09007472
630.00000000	0.11170665
631.00000000	0.15875610
632.00000000	0.12763194
633.00000000	0.07977995
634.00000000	0.05310318
635.00000000	0.03275303
636.00000000	0.02254965
637.00000000	0.01767361
638.00000000	0.01525825
639.00000000	0.01363629
640.00000000	0.01248023
641.00000000	0.01243636
642.00000000	0.01195754
643.00000000	0.01223832
644.00000000	0.01269263
645.00000000	0.01252977
646.00000000	0.01277391
647.00000000	0.01275706
648.00000000	0.01273482
649.00000000	0.01595176
650.00000000	0.03463342
651.00000000	0.04270212
652.00000000	0.03212115
653.00000000	0.03138620
654.00000000	0.02500061
655.00000000	0.01866252
656.00000000	0.01547997
657.00000000	0.01505678
658.00000000	0.01583016
659.00000000	0.01345839
660.00000000	0.01054037
661.00000000	0.01146276
662.00000000	0.02255421
663.00000000	0.02712408
664.00000000	0.01994670
665.00000000	0.01601217
666.00000000	0.01227738
667.00000000	0.01064288
668.00000000	0.00972573
669.00000000	0.00889718
670.00000000	0.00827490
671.00000000	0.00792842
672.00000000	0.00767352
673.00000000	0.00642030
674.00000000	0.00626786
675.00000000	0.00587933
676.00000000	0.00617797
677.00000000	0.00536234
678.00000000	0.00614519
679.00000000	0.00684199
680.00000000	0.00777610
681.00000000	0.00812978
682.00000000	0.00735968
683.00000000	0.00649116
684.00000000	0.00718150
685.00000000	0.00732170
686.00000000	0.01076242
687.00000000	0.02235599
688.00000000	0.02722163
689.00000000	0.02040286
690.00000000	0.01259218
691.00000000	0.00869462
692.00000000	0.00603931
693.00000000	0.01525845
694.00000000	0.01817649
695.00000000	0.01083324
696.00000000	0.00955599
697.00000000	0.00751800
698.00000000	0.00309503
699.00000000	0.00205080
700.00000000	0.00240736
701.00000000	0.00291075
702.00000000	0.00334863
703.00000000	0.00535535
704.00000000	0.01031882
705.00000000	0.01717406
706.00000000	0.04167443
707.00000000	0.06742163
708.00000000	0.06812430
709.00000000	0.08732406
710.00000000	0.06041588
711.00000000	0.04891500
712.00000000	0.07098867
713.00000000	0.05734569
714.00000000	0.03087549
715.00000000	0.01872878
716.00000000	0.00963993
717.00000000	0.00322800
718.00000000	0.00107217
719.00000000	0.00128446
720.00000000	0.00107275
721.00000000	0.00088571
722.00000000	0.00052200
723.00000000	0.00072979
724.00000000	0.00065610
725.00000000	0.00055496
