#LICA Lamps Spectra Database
#Website 1: https://guaix.fis.ucm.es/lamps_spectra
#Website 2: http://carlostapia.es/lamparas/lamps.html
#Latest update: 2017/12/26
#Tester: Carlos Eugenio Tapia Ayuga
#Correct for Electrical Dark: Yes (JAZA2310)
#Correct for Detector Non-linearity: Yes (JAZA2310)
#Correct for Flux: Yes
#Start wavelength (nm): 300
#End wavelength (nm): 900
#Steps (nm):	1
#Locus: D65 sRGB Gamma 1 CIE1931
#XYZ coordinates: 0.1893	0.1404	0.0205
#xyY coordinates: 0.5406	0.4009	0.1404
#sRGB: 99	21	1
#CCT Lindbloom (K):	1819
#CCT McCamy (K):	1809
#CCT Hernández-Andrés (K):	1413
#Melatonin: 0.138
#Chlorophyll a: 0.228
#Chlorophyll b: 0.367
#Beta Carotene: 0.229
#Manufacturer: Unknown
#Luminance manufacturer: Unknown
#Other data: Riba-Roja de Turia streetlamps. Plaça de l'Ajuntament
#Begin Processed Spectral Data
W	S
475.00000000	0.01958793
476.00000000	0.02017638
477.00000000	0.01258515
478.00000000	0.00756294
479.00000000	0.00535673
480.00000000	0.00421725
481.00000000	0.00371503
482.00000000	0.00364567
483.00000000	0.00375968
484.00000000	0.00396065
485.00000000	0.00366342
486.00000000	0.00439312
487.00000000	0.00433193
488.00000000	0.00444541
489.00000000	0.00566010
490.00000000	0.00607051
491.00000000	0.00932006
492.00000000	0.00971549
493.00000000	0.00966155
494.00000000	0.01010780
495.00000000	0.01318190
496.00000000	0.02226595
497.00000000	0.05446993
498.00000000	0.13912883
499.00000000	0.18348569
500.00000000	0.12694085
501.00000000	0.07350229
502.00000000	0.03999362
503.00000000	0.02146809
504.00000000	0.01339509
505.00000000	0.01006384
506.00000000	0.00812304
507.00000000	0.00742370
508.00000000	0.00685839
509.00000000	0.00618855
510.00000000	0.00632048
511.00000000	0.00602800
512.00000000	0.00614098
513.00000000	0.00659537
514.00000000	0.00963059
515.00000000	0.03426678
516.00000000	0.04716502
517.00000000	0.02679810
518.00000000	0.01641462
519.00000000	0.00998712
520.00000000	0.00720811
521.00000000	0.00609932
522.00000000	0.00589556
523.00000000	0.00611537
524.00000000	0.00567228
525.00000000	0.00652342
526.00000000	0.00614045
527.00000000	0.00609720
528.00000000	0.00620089
529.00000000	0.00626471
530.00000000	0.00684091
531.00000000	0.00633303
532.00000000	0.00666979
533.00000000	0.00656582
534.00000000	0.00677498
535.00000000	0.00671629
536.00000000	0.00722001
537.00000000	0.00758873
538.00000000	0.00793194
539.00000000	0.00807041
540.00000000	0.00868175
541.00000000	0.00863265
542.00000000	0.00890114
543.00000000	0.00906567
544.00000000	0.00977647
545.00000000	0.01117859
546.00000000	0.01775962
547.00000000	0.01957873
548.00000000	0.02023574
549.00000000	0.02459463
550.00000000	0.03162739
551.00000000	0.03895441
552.00000000	0.04473322
553.00000000	0.04797905
554.00000000	0.04907740
555.00000000	0.04660261
556.00000000	0.04774001
557.00000000	0.04879573
558.00000000	0.05141350
559.00000000	0.05383261
560.00000000	0.05582455
561.00000000	0.06041360
562.00000000	0.06283853
563.00000000	0.06721996
564.00000000	0.07379673
565.00000000	0.08395602
566.00000000	0.11577130
567.00000000	0.18802552
568.00000000	0.38615984
569.00000000	0.64582902
570.00000000	0.54607530
571.00000000	0.35398864
572.00000000	0.25195849
573.00000000	0.18315611
574.00000000	0.15313601
575.00000000	0.15139654
576.00000000	0.15988037
577.00000000	0.17436586
578.00000000	0.19382453
579.00000000	0.21775967
580.00000000	0.24916095
581.00000000	0.28521340
582.00000000	0.33015557
583.00000000	0.38336241
584.00000000	0.43090709
585.00000000	0.46653106
586.00000000	0.43862762
587.00000000	0.31426551
588.00000000	0.17071728
589.00000000	0.08511059
590.00000000	0.04472266
591.00000000	0.03772182
592.00000000	0.08571071
593.00000000	0.18654659
594.00000000	0.30046974
595.00000000	0.39547936
596.00000000	0.45433407
597.00000000	0.48901280
598.00000000	0.49574542
599.00000000	0.49280344
600.00000000	0.47778660
601.00000000	0.46237824
602.00000000	0.44382798
603.00000000	0.42224898
604.00000000	0.40066945
605.00000000	0.37392854
606.00000000	0.35301088
607.00000000	0.33234654
608.00000000	0.31296003
609.00000000	0.29633244
610.00000000	0.27897538
611.00000000	0.26279308
612.00000000	0.25035543
613.00000000	0.23593924
614.00000000	0.22794532
615.00000000	0.26299155
616.00000000	0.33783973
617.00000000	0.29672493
618.00000000	0.23560518
619.00000000	0.20623278
620.00000000	0.18537912
621.00000000	0.16752521
622.00000000	0.16029758
623.00000000	0.15175901
624.00000000	0.14582046
625.00000000	0.14169809
626.00000000	0.13711550
627.00000000	0.13266616
628.00000000	0.12699912
629.00000000	0.12377000
630.00000000	0.11886045
631.00000000	0.11726135
632.00000000	0.11347367
633.00000000	0.11166299
634.00000000	0.10685430
635.00000000	0.10492153
636.00000000	0.10250296
637.00000000	0.10208876
638.00000000	0.09800772
639.00000000	0.09628231
640.00000000	0.09480260
641.00000000	0.09413575
642.00000000	0.09230914
643.00000000	0.09052759
644.00000000	0.08977364
645.00000000	0.08878666
646.00000000	0.08786247
647.00000000	0.08777468
648.00000000	0.08484997
649.00000000	0.08330382
650.00000000	0.08119856
651.00000000	0.07645962
652.00000000	0.07579256
653.00000000	0.07628641
654.00000000	0.07597064
655.00000000	0.07749667
656.00000000	0.07720943
657.00000000	0.07820572
658.00000000	0.07568487
659.00000000	0.07504262
660.00000000	0.07135704
661.00000000	0.06974290
662.00000000	0.06638843
663.00000000	0.06527190
664.00000000	0.06357261
665.00000000	0.06440081
666.00000000	0.06655806
667.00000000	0.06791323
668.00000000	0.07012454
669.00000000	0.07436897
670.00000000	0.07502624
671.00000000	0.07710106
672.00000000	0.07661238
673.00000000	0.07533741
674.00000000	0.07534911
675.00000000	0.07471262
676.00000000	0.07090036
677.00000000	0.06673687
678.00000000	0.06302099
679.00000000	0.05982443
680.00000000	0.05608812
681.00000000	0.05265647
682.00000000	0.04874679
683.00000000	0.04464063
684.00000000	0.04122032
685.00000000	0.03839479
686.00000000	0.03543204
687.00000000	0.03284189
688.00000000	0.03325671
689.00000000	0.02999844
690.00000000	0.02937641
691.00000000	0.02892536
692.00000000	0.02741240
693.00000000	0.02675641
694.00000000	0.02658840
695.00000000	0.02545225
696.00000000	0.02512602
697.00000000	0.02419125
698.00000000	0.02456948
699.00000000	0.02379113
700.00000000	0.02278383
701.00000000	0.02293336
702.00000000	0.02224429
703.00000000	0.02288532
704.00000000	0.02212023
705.00000000	0.02265695
706.00000000	0.02194354
707.00000000	0.02218410
708.00000000	0.02152243
709.00000000	0.02180488
710.00000000	0.02135291
711.00000000	0.02182315
712.00000000	0.02167378
713.00000000	0.02117675
714.00000000	0.02285358
715.00000000	0.02139206
716.00000000	0.02104288
717.00000000	0.02130691
718.00000000	0.02029664
719.00000000	0.02111359
720.00000000	0.02003733
721.00000000	0.02028696
722.00000000	0.02029977
723.00000000	0.02071223
724.00000000	0.01978885
725.00000000	0.02107856
