#LICA Lamps Spectra Database
#Website 1: https://guaix.fis.ucm.es/lamps_spectra
#Website 2: http://carlostapia.es/lamparas/lamps.html
#Latest update: 2017/12/26
#Tester: Carlos Eugenio Tapia Ayuga
#Correct for Electrical Dark: Yes (JAZA2310)
#Correct for Detector Non-linearity: Yes (JAZA2310)
#Correct for Flux: Yes
#Start wavelength (nm): 300
#End wavelength (nm): 900
#Steps (nm):	1
#Locus: D65 sRGB Gamma 1 CIE1931
#XYZ coordinates: 0.1832	0.1533	0.0126
#xyY coordinates: 0.5248	0.4392	0.1533
#sRGB: 90	28	0
#CCT Lindbloom (K):	2176
#CCT McCamy (K):	2172
#CCT Hernández-Andrés (K):	1951
#Melatonin: 0.104
#Chlorophyll a: 0.369
#Chlorophyll b: 0.289
#Beta Carotene: 0.369
#Manufacturer: Unknown
#Luminance manufacturer: Unknown
#Other data: Riba-Roja de Turia streetlamps. Yellowish.
#Begin Processed Spectral Data
W	S
475.00000000	0.01514294
476.00000000	0.01726303
477.00000000	0.01096339
478.00000000	0.00918892
479.00000000	0.00823538
480.00000000	0.00777311
481.00000000	0.00782728
482.00000000	0.00771260
483.00000000	0.00842671
484.00000000	0.00830692
485.00000000	0.00888896
486.00000000	0.00898702
487.00000000	0.00917831
488.00000000	0.00914555
489.00000000	0.01016228
490.00000000	0.01030075
491.00000000	0.01186158
492.00000000	0.01298584
493.00000000	0.01222370
494.00000000	0.01275907
495.00000000	0.01430202
496.00000000	0.02052816
497.00000000	0.04407464
498.00000000	0.11823213
499.00000000	0.14214184
500.00000000	0.08140228
501.00000000	0.05267979
502.00000000	0.03305028
503.00000000	0.02076958
504.00000000	0.01541997
505.00000000	0.01420169
506.00000000	0.01338018
507.00000000	0.01266532
508.00000000	0.01291515
509.00000000	0.01314751
510.00000000	0.01309644
511.00000000	0.01287877
512.00000000	0.01300061
513.00000000	0.01363404
514.00000000	0.01603363
515.00000000	0.03726085
516.00000000	0.04679287
517.00000000	0.02479455
518.00000000	0.02102624
519.00000000	0.01749871
520.00000000	0.01539406
521.00000000	0.01423296
522.00000000	0.01409593
523.00000000	0.01454642
524.00000000	0.01495779
525.00000000	0.01513706
526.00000000	0.01512075
527.00000000	0.01490849
528.00000000	0.01525991
529.00000000	0.01556187
530.00000000	0.01551979
531.00000000	0.01613516
532.00000000	0.01632342
533.00000000	0.01642876
534.00000000	0.01681316
535.00000000	0.01706083
536.00000000	0.01730465
537.00000000	0.01815882
538.00000000	0.01810644
539.00000000	0.01862844
540.00000000	0.01971038
541.00000000	0.02020715
542.00000000	0.02137046
543.00000000	0.02195891
544.00000000	0.02347750
545.00000000	0.02620329
546.00000000	0.02941296
547.00000000	0.03498052
548.00000000	0.04549132
549.00000000	0.06219073
550.00000000	0.08332568
551.00000000	0.10336714
552.00000000	0.11443525
553.00000000	0.12133946
554.00000000	0.12268654
555.00000000	0.12431471
556.00000000	0.13111294
557.00000000	0.13886688
558.00000000	0.15231044
559.00000000	0.16440808
560.00000000	0.17656539
561.00000000	0.18642960
562.00000000	0.19105372
563.00000000	0.19401901
564.00000000	0.19984625
565.00000000	0.20689292
566.00000000	0.22623374
567.00000000	0.27366567
568.00000000	0.40842063
569.00000000	0.58017111
570.00000000	0.45604569
571.00000000	0.36405610
572.00000000	0.33929803
573.00000000	0.31070067
574.00000000	0.30255307
575.00000000	0.31231006
576.00000000	0.32809841
577.00000000	0.34588896
578.00000000	0.36332512
579.00000000	0.37874908
580.00000000	0.39281860
581.00000000	0.39587648
582.00000000	0.38524777
583.00000000	0.34953874
584.00000000	0.28208644
585.00000000	0.19714839
586.00000000	0.11570976
587.00000000	0.06123320
588.00000000	0.03290846
589.00000000	0.01673694
590.00000000	0.01059258
591.00000000	0.01073895
592.00000000	0.01826701
593.00000000	0.05326248
594.00000000	0.12634916
595.00000000	0.21672688
596.00000000	0.29751835
597.00000000	0.36028298
598.00000000	0.39770796
599.00000000	0.42000743
600.00000000	0.42605501
601.00000000	0.41906895
602.00000000	0.40717322
603.00000000	0.39481326
604.00000000	0.37436339
605.00000000	0.35211329
606.00000000	0.33544074
607.00000000	0.31563237
608.00000000	0.29793692
609.00000000	0.28272423
610.00000000	0.26750540
611.00000000	0.25518236
612.00000000	0.24213773
613.00000000	0.22914556
614.00000000	0.22218464
615.00000000	0.25566561
616.00000000	0.32681688
617.00000000	0.26494803
618.00000000	0.21810155
619.00000000	0.20318678
620.00000000	0.18378285
621.00000000	0.16704770
622.00000000	0.15837102
623.00000000	0.15108815
624.00000000	0.14601553
625.00000000	0.14108231
626.00000000	0.13628595
627.00000000	0.13274587
628.00000000	0.12876884
629.00000000	0.12375931
630.00000000	0.11996370
631.00000000	0.11642878
632.00000000	0.11302133
633.00000000	0.10964109
634.00000000	0.10726140
635.00000000	0.10393745
636.00000000	0.10232227
637.00000000	0.09833416
638.00000000	0.09611637
639.00000000	0.09350033
640.00000000	0.09283462
641.00000000	0.08973491
642.00000000	0.08777889
643.00000000	0.08599950
644.00000000	0.08450798
645.00000000	0.08178885
646.00000000	0.08119681
647.00000000	0.07870124
648.00000000	0.07627345
649.00000000	0.07574394
650.00000000	0.07498716
651.00000000	0.07391655
652.00000000	0.07175909
653.00000000	0.06981834
654.00000000	0.06905677
655.00000000	0.06681188
656.00000000	0.06584881
657.00000000	0.06610435
658.00000000	0.06455440
659.00000000	0.06382071
660.00000000	0.06269298
661.00000000	0.06218213
662.00000000	0.06145054
663.00000000	0.06026547
664.00000000	0.05900784
665.00000000	0.05839369
666.00000000	0.05793135
667.00000000	0.05638830
668.00000000	0.05537441
669.00000000	0.05643087
670.00000000	0.05451985
671.00000000	0.05492737
672.00000000	0.05396308
673.00000000	0.05367573
674.00000000	0.05252584
675.00000000	0.05273644
676.00000000	0.05262089
677.00000000	0.05044257
678.00000000	0.05008218
679.00000000	0.04911748
680.00000000	0.05046856
681.00000000	0.04912081
682.00000000	0.04895748
683.00000000	0.04804371
684.00000000	0.04695296
685.00000000	0.04680691
686.00000000	0.04606910
687.00000000	0.04477807
688.00000000	0.04412085
689.00000000	0.04476602
690.00000000	0.04412844
691.00000000	0.04479146
692.00000000	0.04506219
693.00000000	0.04431891
694.00000000	0.04363068
695.00000000	0.04338055
696.00000000	0.04323123
697.00000000	0.04226899
698.00000000	0.04210587
699.00000000	0.04172368
700.00000000	0.04177824
701.00000000	0.04146369
702.00000000	0.04183118
703.00000000	0.04208795
704.00000000	0.04001463
705.00000000	0.04005845
706.00000000	0.03989590
707.00000000	0.04021478
708.00000000	0.03835758
709.00000000	0.03868085
710.00000000	0.03850013
711.00000000	0.03839255
712.00000000	0.03896567
713.00000000	0.03765508
714.00000000	0.03666217
715.00000000	0.03702717
716.00000000	0.03722488
717.00000000	0.03680029
718.00000000	0.03537575
719.00000000	0.03608684
720.00000000	0.03612076
721.00000000	0.03728825
722.00000000	0.03549274
723.00000000	0.03635037
724.00000000	0.03489984
725.00000000	0.03540329
