#LICA Lamps Spectra Database
#Website 1: https://guaix.fis.ucm.es/lamps_spectra
#Website 2: http://carlostapia.es/lamparas/lamps.html
#Latest update: 2017/12/15
#Tester: Carlos Eugenio Tapia Ayuga
#Correct for Electrical Dark: Yes (JAZA2310)
#Correct for Detector Non-linearity: Yes (JAZA2310)
#Correct for Flux: Yes
#Start wavelength (nm): 300
#End wavelength (nm): 900
#Steps (nm):	1
#Locus: D65 sRGB Gamma 1 CIE1931
#XYZ coordinates: 0.7242	0.6832	0.1649
#xyY coordinates: 0.4606	0.4345	0.6832
#sRGB: 255	123	16
#CCT Lindbloom (K):	2870
#CCT McCamy (K):	2873
#CCT Hernández-Andrés (K):	2788
#Melatonin: 0.217
#Chlorophyll a: 0.109
#Chlorophyll b: 0.438
#Beta Carotene: 0.110
#Manufacturer: Unknown
#Luminance manufacturer: Unknown
#Other data:
#Begin Processed Spectral Data
W	S
475.00000000	0.07235903
476.00000000	0.06802289
477.00000000	0.06513899
478.00000000	0.06106370
479.00000000	0.06224429
480.00000000	0.05970304
481.00000000	0.06081623
482.00000000	0.05882583
483.00000000	0.06102168
484.00000000	0.05916402
485.00000000	0.06055675
486.00000000	0.05987162
487.00000000	0.06029813
488.00000000	0.06077936
489.00000000	0.06493782
490.00000000	0.06485362
491.00000000	0.06645540
492.00000000	0.07058077
493.00000000	0.07118976
494.00000000	0.07694881
495.00000000	0.07826677
496.00000000	0.08487131
497.00000000	0.08876498
498.00000000	0.09460224
499.00000000	0.09858184
500.00000000	0.10846077
501.00000000	0.11688146
502.00000000	0.12173844
503.00000000	0.13037608
504.00000000	0.13590893
505.00000000	0.14325622
506.00000000	0.15165427
507.00000000	0.16177896
508.00000000	0.17028729
509.00000000	0.17680265
510.00000000	0.19132676
511.00000000	0.19773407
512.00000000	0.20997127
513.00000000	0.21833348
514.00000000	0.22903732
515.00000000	0.24060533
516.00000000	0.24869160
517.00000000	0.26062148
518.00000000	0.26903051
519.00000000	0.27736082
520.00000000	0.29217442
521.00000000	0.30006433
522.00000000	0.31080092
523.00000000	0.31957833
524.00000000	0.33228406
525.00000000	0.34804089
526.00000000	0.35421720
527.00000000	0.36630313
528.00000000	0.38032630
529.00000000	0.39615911
530.00000000	0.40874256
531.00000000	0.42153952
532.00000000	0.42752975
533.00000000	0.44058894
534.00000000	0.44759255
535.00000000	0.46129621
536.00000000	0.47810176
537.00000000	0.48798824
538.00000000	0.50405000
539.00000000	0.51414416
540.00000000	0.52060001
541.00000000	0.53751840
542.00000000	0.55317988
543.00000000	0.56604475
544.00000000	0.58086110
545.00000000	0.59157505
546.00000000	0.60214307
547.00000000	0.61865175
548.00000000	0.62863804
549.00000000	0.64283270
550.00000000	0.66358440
551.00000000	0.68116185
552.00000000	0.69208967
553.00000000	0.70983810
554.00000000	0.72199315
555.00000000	0.74566253
556.00000000	0.75862002
557.00000000	0.77263187
558.00000000	0.78076667
559.00000000	0.78552109
560.00000000	0.79801999
561.00000000	0.81931122
562.00000000	0.83117867
563.00000000	0.84186175
564.00000000	0.85432207
565.00000000	0.86904066
566.00000000	0.88293898
567.00000000	0.90001137
568.00000000	0.90822695
569.00000000	0.90873287
570.00000000	0.92028699
571.00000000	0.91793576
572.00000000	0.92843586
573.00000000	0.93792773
574.00000000	0.94327501
575.00000000	0.95431087
576.00000000	0.96329888
577.00000000	0.96047003
578.00000000	0.96298161
579.00000000	0.96698864
580.00000000	0.97689827
581.00000000	0.98378955
582.00000000	0.98763041
583.00000000	0.99571222
584.00000000	0.99712656
585.00000000	0.99805796
586.00000000	0.99757074
587.00000000	0.99690310
588.00000000	1.00000000
589.00000000	0.99772526
590.00000000	0.99586280
591.00000000	0.99273897
592.00000000	0.99277464
593.00000000	0.98168923
594.00000000	0.97084407
595.00000000	0.97556214
596.00000000	0.97124864
597.00000000	0.96787168
598.00000000	0.95595656
599.00000000	0.95938050
600.00000000	0.96318826
601.00000000	0.95185314
602.00000000	0.94929028
603.00000000	0.95234397
604.00000000	0.92572912
605.00000000	0.90922644
606.00000000	0.89570593
607.00000000	0.88667539
608.00000000	0.88818165
609.00000000	0.86496108
610.00000000	0.85500377
611.00000000	0.85279900
612.00000000	0.83285420
613.00000000	0.83119719
614.00000000	0.81313166
615.00000000	0.80421585
616.00000000	0.79532114
617.00000000	0.78706491
618.00000000	0.78129729
619.00000000	0.76460973
620.00000000	0.75173508
621.00000000	0.73744455
622.00000000	0.72942516
623.00000000	0.70839649
624.00000000	0.70010425
625.00000000	0.68976519
626.00000000	0.67221775
627.00000000	0.65590801
628.00000000	0.64334257
629.00000000	0.63404192
630.00000000	0.62268313
631.00000000	0.61082581
632.00000000	0.59456185
633.00000000	0.58940767
634.00000000	0.57987928
635.00000000	0.56352134
636.00000000	0.54665166
637.00000000	0.53430694
638.00000000	0.52779981
639.00000000	0.50819372
640.00000000	0.50227157
641.00000000	0.49290129
642.00000000	0.48551576
643.00000000	0.46823243
644.00000000	0.46039860
645.00000000	0.44694892
646.00000000	0.44388203
647.00000000	0.42811953
648.00000000	0.41781546
649.00000000	0.41627610
650.00000000	0.39294302
651.00000000	0.38556572
652.00000000	0.37612925
653.00000000	0.36138030
654.00000000	0.35960650
655.00000000	0.35538870
656.00000000	0.33804843
657.00000000	0.33130069
658.00000000	0.32760492
659.00000000	0.31380213
660.00000000	0.30683384
661.00000000	0.29877518
662.00000000	0.29607461
663.00000000	0.27994083
664.00000000	0.27365065
665.00000000	0.27374000
666.00000000	0.25513064
667.00000000	0.25147878
668.00000000	0.23899051
669.00000000	0.23590665
670.00000000	0.23738684
671.00000000	0.22677647
672.00000000	0.22004022
673.00000000	0.22348801
674.00000000	0.20732009
675.00000000	0.20511944
676.00000000	0.19953548
677.00000000	0.19447151
678.00000000	0.18826708
679.00000000	0.18529108
680.00000000	0.17958211
681.00000000	0.17272272
682.00000000	0.16138195
683.00000000	0.15933187
684.00000000	0.15671224
685.00000000	0.15543030
686.00000000	0.14474516
687.00000000	0.14624404
688.00000000	0.14104510
689.00000000	0.13360915
690.00000000	0.13079059
691.00000000	0.12331828
692.00000000	0.13170570
693.00000000	0.11920200
694.00000000	0.11512190
695.00000000	0.11650606
696.00000000	0.11334124
697.00000000	0.11183172
698.00000000	0.10508176
699.00000000	0.09981902
700.00000000	0.10139508
701.00000000	0.09887493
702.00000000	0.09463328
703.00000000	0.08821774
704.00000000	0.09435288
705.00000000	0.08696066
706.00000000	0.08063532
707.00000000	0.07784129
708.00000000	0.07931805
709.00000000	0.07675657
710.00000000	0.07323350
711.00000000	0.07267767
712.00000000	0.07041185
713.00000000	0.06358351
714.00000000	0.05997023
715.00000000	0.06233758
716.00000000	0.06116763
717.00000000	0.06368246
718.00000000	0.05438816
719.00000000	0.05898275
720.00000000	0.05627326
721.00000000	0.05259327
722.00000000	0.05677283
723.00000000	0.04889510
724.00000000	0.04862619
725.00000000	0.04583250
