#Website 1: https://guaix.fis.ucm.es/lamps_spectra
#Website 2: http://carlostapia.es/lamparas/lamps.html
#Latest update: 2018/04/25
#Tester: Carlos Eugenio Tapia Ayuga
#Correct for Electrical Dark: Yes (JAZA2310)
#Correct for Detector Non-linearity: Yes (JAZA2310)
#Correct for Flux: Yes
#Start wavelength (nm): 300
#End wavelength (nm): 900
#Steps (nm):	1
#Locus: D65 sRGB Gamma 1 CIE1931
#XYZ coordinates: 0.4014	0.4071	0.4655
#xyY coordinates: 0.3151	0.3195	0.4071
#sRGB: 113	100	110
#CCT Lindbloom (K):	6442
#CCT McCamy (K):	6442
#CCT Hernández-Andrés (K):	6449
#Melatonin: 0.784
#Chlorophyll a: 0.086
#Chlorophyll b: 1.101
#Beta Carotene: 0.087
#Manufacturer: Unknown
#Luminance manufacturer: Unknown
#Other data: LED projector on ADIF parking in Almería train station
#Begin Processed Spectral Data
W	S
475.00000000	0.11632963
476.00000000	0.10975900
477.00000000	0.10580317
478.00000000	0.09892533
479.00000000	0.10177659
480.00000000	0.09693489
481.00000000	0.09454523
482.00000000	0.09199265
483.00000000	0.09052255
484.00000000	0.09467461
485.00000000	0.09247073
486.00000000	0.09713568
487.00000000	0.09783165
488.00000000	0.09881047
489.00000000	0.10357015
490.00000000	0.10580949
491.00000000	0.11147808
492.00000000	0.11682554
493.00000000	0.12373910
494.00000000	0.12759047
495.00000000	0.13479967
496.00000000	0.14530470
497.00000000	0.15649747
498.00000000	0.16254890
499.00000000	0.17054989
500.00000000	0.18330865
501.00000000	0.19326566
502.00000000	0.20189568
503.00000000	0.21669513
504.00000000	0.22104761
505.00000000	0.23317031
506.00000000	0.24167344
507.00000000	0.25537691
508.00000000	0.26272891
509.00000000	0.27618596
510.00000000	0.28616654
511.00000000	0.29946982
512.00000000	0.30753958
513.00000000	0.31573492
514.00000000	0.32844971
515.00000000	0.33943771
516.00000000	0.34467405
517.00000000	0.35551878
518.00000000	0.35768619
519.00000000	0.36173447
520.00000000	0.37209941
521.00000000	0.37465704
522.00000000	0.38026000
523.00000000	0.39008244
524.00000000	0.40209289
525.00000000	0.40158310
526.00000000	0.41110275
527.00000000	0.41711146
528.00000000	0.41385358
529.00000000	0.41712957
530.00000000	0.42368312
531.00000000	0.42798974
532.00000000	0.42885716
533.00000000	0.43178941
534.00000000	0.43447260
535.00000000	0.43497180
536.00000000	0.43594554
537.00000000	0.43982242
538.00000000	0.44652455
539.00000000	0.44752276
540.00000000	0.44910111
541.00000000	0.45136947
542.00000000	0.44868184
543.00000000	0.45339936
544.00000000	0.45570272
545.00000000	0.45308783
546.00000000	0.45300979
547.00000000	0.45739365
548.00000000	0.45770094
549.00000000	0.45062219
550.00000000	0.45619251
551.00000000	0.45654648
552.00000000	0.45729762
553.00000000	0.46176293
554.00000000	0.46328505
555.00000000	0.46346408
556.00000000	0.46381196
557.00000000	0.46966585
558.00000000	0.46890177
559.00000000	0.46718652
560.00000000	0.46940729
561.00000000	0.46992901
562.00000000	0.46676502
563.00000000	0.46477533
564.00000000	0.46458083
565.00000000	0.46108774
566.00000000	0.46054293
567.00000000	0.45612628
568.00000000	0.45739034
569.00000000	0.46108283
570.00000000	0.45179592
571.00000000	0.45060449
572.00000000	0.44615204
573.00000000	0.44454173
574.00000000	0.44641099
575.00000000	0.44737045
576.00000000	0.44298326
577.00000000	0.44229475
578.00000000	0.44190630
579.00000000	0.43688027
580.00000000	0.42708234
581.00000000	0.43092056
582.00000000	0.43079692
583.00000000	0.43093974
584.00000000	0.43041713
585.00000000	0.42926191
586.00000000	0.41887763
587.00000000	0.42210108
588.00000000	0.41863929
589.00000000	0.41232680
590.00000000	0.40898648
591.00000000	0.40511713
592.00000000	0.40363417
593.00000000	0.40220118
594.00000000	0.40482289
595.00000000	0.39725266
596.00000000	0.38874796
597.00000000	0.38741829
598.00000000	0.38167758
599.00000000	0.38037874
600.00000000	0.37412110
601.00000000	0.37219285
602.00000000	0.37117842
603.00000000	0.36540165
604.00000000	0.35857897
605.00000000	0.35962474
606.00000000	0.35051533
607.00000000	0.34373613
608.00000000	0.33518693
609.00000000	0.32876844
610.00000000	0.32516208
611.00000000	0.32245964
612.00000000	0.31274749
613.00000000	0.31255299
614.00000000	0.30635486
615.00000000	0.30592222
616.00000000	0.30494447
617.00000000	0.30156772
618.00000000	0.29862668
619.00000000	0.29517605
620.00000000	0.29434997
621.00000000	0.28927916
622.00000000	0.28381083
623.00000000	0.27498212
624.00000000	0.26963640
625.00000000	0.26657647
626.00000000	0.25944415
627.00000000	0.25776920
628.00000000	0.24924208
629.00000000	0.24114370
630.00000000	0.24107224
631.00000000	0.23379389
632.00000000	0.23375335
633.00000000	0.22565103
634.00000000	0.22150527
635.00000000	0.21663887
636.00000000	0.21374057
637.00000000	0.21109605
638.00000000	0.20277269
639.00000000	0.20066070
640.00000000	0.19432811
641.00000000	0.19042666
642.00000000	0.19330251
643.00000000	0.18415223
644.00000000	0.18159248
645.00000000	0.17429822
646.00000000	0.17151837
647.00000000	0.16982662
648.00000000	0.16317334
649.00000000	0.16100678
650.00000000	0.15709344
651.00000000	0.15421727
652.00000000	0.14983018
653.00000000	0.14555889
654.00000000	0.14434308
655.00000000	0.14334719
656.00000000	0.13570413
657.00000000	0.13475440
658.00000000	0.13347050
659.00000000	0.13069677
660.00000000	0.12396001
661.00000000	0.12104086
662.00000000	0.12203265
663.00000000	0.11166304
664.00000000	0.11012395
665.00000000	0.10808959
666.00000000	0.10423666
667.00000000	0.10429265
668.00000000	0.09627111
669.00000000	0.10070936
670.00000000	0.09973370
671.00000000	0.09359463
672.00000000	0.09374817
673.00000000	0.08702340
674.00000000	0.08845428
675.00000000	0.08359149
676.00000000	0.08294719
677.00000000	0.08084538
678.00000000	0.08082513
679.00000000	0.07841301
680.00000000	0.07449163
681.00000000	0.07159020
682.00000000	0.06974021
683.00000000	0.06840858
684.00000000	0.06786787
685.00000000	0.06534511
686.00000000	0.06260939
687.00000000	0.05986134
688.00000000	0.06038953
689.00000000	0.05629458
690.00000000	0.05757355
691.00000000	0.05435791
692.00000000	0.05488189
693.00000000	0.05290631
694.00000000	0.05246296
695.00000000	0.05057343
696.00000000	0.04763674
697.00000000	0.04518463
698.00000000	0.04528813
699.00000000	0.04452087
700.00000000	0.04377138
701.00000000	0.04395692
702.00000000	0.04113387
703.00000000	0.03952772
704.00000000	0.03978699
705.00000000	0.03429076
706.00000000	0.03809692
707.00000000	0.03510769
708.00000000	0.03583635
709.00000000	0.03562197
710.00000000	0.03282028
711.00000000	0.03207517
712.00000000	0.03134510
713.00000000	0.02971388
714.00000000	0.03166895
715.00000000	0.02907316
716.00000000	0.03112781
717.00000000	0.02820755
718.00000000	0.02772865
719.00000000	0.02728399
720.00000000	0.02509077
721.00000000	0.02280969
722.00000000	0.02217024
723.00000000	0.02182082
724.00000000	0.02205535
725.00000000	0.02257603
