#LICA Lamps Spectra Database
#Website 1: https://guaix.fis.ucm.es/lamps_spectra
#Website 2: http://carlostapia.es/lamparas/lamps.html
#Latest update: 2018/04/18
#Tester: Carlos Eugenio Tapia Ayuga
#Correct for Electrical Dark: Yes (JAZA2310)
#Correct for Detector Non-linearity: Yes (JAZA2310)
#Correct for Flux: Yes
#Start wavelength (nm): 300
#End wavelength (nm): 900
#Steps (nm):	1
#Locus: D65 sRGB Gamma 1 CIE1931
#XYZ coordinates: 0.7749	0.7175	0.2745
#xyY coordinates: 0.4386	0.4061	0.7175
#sRGB: 255	122	37
#CCT Lindbloom (K):	2989
#CCT McCamy (K):	2993
#CCT Hernández-Andrés (K):	2940
#Melatonin: 0.330
#Chlorophyll a: 0.175
#Chlorophyll b: 0.577
#Beta Carotene: 0.175
#Manufacturer: Lexman
#Luminance manufacturer: 470lm
#Other data: 3000K. 5W
#Begin Processed Spectral Data
W	S
475.00000000	0.23259770
476.00000000	0.22705344
477.00000000	0.21850451
478.00000000	0.21005926
479.00000000	0.20838345
480.00000000	0.20697659
481.00000000	0.20880115
482.00000000	0.20716206
483.00000000	0.21045997
484.00000000	0.21316675
485.00000000	0.21461806
486.00000000	0.22170097
487.00000000	0.22843468
488.00000000	0.23133401
489.00000000	0.23776935
490.00000000	0.24196935
491.00000000	0.24519413
492.00000000	0.25049528
493.00000000	0.25828767
494.00000000	0.26848814
495.00000000	0.27288347
496.00000000	0.27917849
497.00000000	0.29180938
498.00000000	0.29965171
499.00000000	0.31007877
500.00000000	0.31697711
501.00000000	0.32890026
502.00000000	0.33849885
503.00000000	0.34834619
504.00000000	0.35435904
505.00000000	0.36431711
506.00000000	0.37040688
507.00000000	0.38021157
508.00000000	0.38857832
509.00000000	0.39954097
510.00000000	0.40591212
511.00000000	0.41388053
512.00000000	0.42907067
513.00000000	0.43196197
514.00000000	0.43565952
515.00000000	0.44374927
516.00000000	0.44826388
517.00000000	0.45065215
518.00000000	0.45985715
519.00000000	0.46041265
520.00000000	0.46921353
521.00000000	0.46841554
522.00000000	0.47343047
523.00000000	0.48023260
524.00000000	0.49196682
525.00000000	0.49408934
526.00000000	0.49913758
527.00000000	0.50421238
528.00000000	0.50839537
529.00000000	0.51319453
530.00000000	0.51291848
531.00000000	0.51853036
532.00000000	0.52214228
533.00000000	0.52270320
534.00000000	0.52888748
535.00000000	0.53052340
536.00000000	0.53287289
537.00000000	0.54105083
538.00000000	0.54031534
539.00000000	0.54496220
540.00000000	0.55634223
541.00000000	0.56000817
542.00000000	0.56500844
543.00000000	0.57524294
544.00000000	0.56970809
545.00000000	0.57918372
546.00000000	0.58383683
547.00000000	0.59141826
548.00000000	0.59807892
549.00000000	0.60079573
550.00000000	0.60850222
551.00000000	0.61272855
552.00000000	0.62105201
553.00000000	0.62502898
554.00000000	0.62987405
555.00000000	0.64037086
556.00000000	0.65326100
557.00000000	0.66286655
558.00000000	0.66870715
559.00000000	0.67780587
560.00000000	0.68099870
561.00000000	0.69416877
562.00000000	0.69948045
563.00000000	0.70015891
564.00000000	0.71065664
565.00000000	0.72575738
566.00000000	0.73069875
567.00000000	0.73587833
568.00000000	0.74461050
569.00000000	0.75918069
570.00000000	0.75853951
571.00000000	0.76665775
572.00000000	0.78199164
573.00000000	0.79134039
574.00000000	0.79799231
575.00000000	0.80407265
576.00000000	0.81146242
577.00000000	0.82027168
578.00000000	0.82759509
579.00000000	0.83428519
580.00000000	0.84771493
581.00000000	0.86043487
582.00000000	0.86393741
583.00000000	0.87325858
584.00000000	0.88834765
585.00000000	0.90084369
586.00000000	0.91215105
587.00000000	0.91003870
588.00000000	0.92546606
589.00000000	0.92570509
590.00000000	0.93839867
591.00000000	0.94459723
592.00000000	0.93943249
593.00000000	0.95134464
594.00000000	0.95283849
595.00000000	0.96751811
596.00000000	0.96627379
597.00000000	0.96430424
598.00000000	0.98087224
599.00000000	0.98028718
600.00000000	0.99021667
601.00000000	0.98859486
602.00000000	0.99674235
603.00000000	0.99845680
604.00000000	0.99630548
605.00000000	1.00000000
606.00000000	0.99309441
607.00000000	0.98665601
608.00000000	0.98489216
609.00000000	0.98163363
610.00000000	0.97536479
611.00000000	0.97553797
612.00000000	0.97472020
613.00000000	0.97357453
614.00000000	0.97183923
615.00000000	0.96926899
616.00000000	0.96962574
617.00000000	0.96851600
618.00000000	0.97502197
619.00000000	0.96252874
620.00000000	0.95889846
621.00000000	0.95098742
622.00000000	0.94011309
623.00000000	0.93383576
624.00000000	0.91847442
625.00000000	0.90872907
626.00000000	0.90759913
627.00000000	0.89258427
628.00000000	0.88316341
629.00000000	0.87701302
630.00000000	0.86726133
631.00000000	0.85696258
632.00000000	0.84194233
633.00000000	0.83015904
634.00000000	0.82719986
635.00000000	0.80790686
636.00000000	0.79862185
637.00000000	0.78032944
638.00000000	0.76445642
639.00000000	0.75931851
640.00000000	0.74038771
641.00000000	0.73438712
642.00000000	0.72452436
643.00000000	0.70531799
644.00000000	0.69812004
645.00000000	0.67920566
646.00000000	0.66616828
647.00000000	0.66351063
648.00000000	0.65220607
649.00000000	0.63461486
650.00000000	0.61674870
651.00000000	0.60958958
652.00000000	0.59808657
653.00000000	0.57928521
654.00000000	0.56523351
655.00000000	0.55869612
656.00000000	0.55081122
657.00000000	0.52267649
658.00000000	0.51758062
659.00000000	0.51365873
660.00000000	0.49834339
661.00000000	0.49098674
662.00000000	0.47470856
663.00000000	0.45717898
664.00000000	0.44279611
665.00000000	0.43673356
666.00000000	0.42468670
667.00000000	0.41622634
668.00000000	0.40317171
669.00000000	0.39367353
670.00000000	0.38680631
671.00000000	0.38183590
672.00000000	0.36387075
673.00000000	0.35464383
674.00000000	0.34757173
675.00000000	0.33668755
676.00000000	0.33222394
677.00000000	0.32062001
678.00000000	0.30914780
679.00000000	0.30478719
680.00000000	0.30113173
681.00000000	0.28748591
682.00000000	0.27817323
683.00000000	0.27567521
684.00000000	0.26602517
685.00000000	0.25370106
686.00000000	0.25131553
687.00000000	0.24423399
688.00000000	0.23787933
689.00000000	0.22414677
690.00000000	0.21962105
691.00000000	0.21589888
692.00000000	0.20991398
693.00000000	0.19969552
694.00000000	0.19836849
695.00000000	0.19182528
696.00000000	0.18488961
697.00000000	0.17940347
698.00000000	0.17110468
699.00000000	0.16958970
700.00000000	0.16490644
701.00000000	0.16570882
702.00000000	0.15693884
703.00000000	0.14934354
704.00000000	0.15444174
705.00000000	0.14567240
706.00000000	0.13909952
707.00000000	0.13129223
708.00000000	0.13079593
709.00000000	0.12907204
710.00000000	0.12124604
711.00000000	0.11986240
712.00000000	0.11511879
713.00000000	0.11108122
714.00000000	0.10387281
715.00000000	0.10310980
716.00000000	0.09788661
717.00000000	0.09990812
718.00000000	0.09637014
719.00000000	0.09500483
720.00000000	0.09370720
721.00000000	0.08969662
722.00000000	0.08512588
723.00000000	0.08137728
724.00000000	0.08081158
725.00000000	0.07885208
