#LICA Lamps Spectra Database
#Website 1: https://guaix.fis.ucm.es/lamps_spectra
#Website 2: http://carlostapia.es/lamparas/lamps.html
#Latest update: 2017/12/17
#Tester: Carlos Eugenio Tapia Ayuga
#Correct for Electrical Dark: Yes (JAZA2310)
#Correct for Detector Non-linearity: Yes (JAZA2310)
#Correct for Flux: Yes
#Start wavelength (nm): 300
#End wavelength (nm): 900
#Steps (nm):	1
#Locus: D65 sRGB Gamma 1 CIE1931
#XYZ coordinates: 0.7549	0.6893	0.2475
#xyY coordinates: 0.4462	0.4075	0.6893
#sRGB: 255	115	33
#CCT Lindbloom (K):	2877
#CCT McCamy (K):	2879
#CCT Hernández-Andrés (K):	2814
#Melatonin: 0.313
#Chlorophyll a: 0.159
#Chlorophyll b: 0.557
#Beta Carotene: 0.160
#Manufacturer: Prilux
#Luminance manufacturer: 480lm
#Other data: Prilux Basic esSENSE BALL. 3000K. 5W
#Begin Processed Spectral Data
W	S
475.00000000	0.15104355
476.00000000	0.14835449
477.00000000	0.14707768
478.00000000	0.14444483
479.00000000	0.14845718
480.00000000	0.14900218
481.00000000	0.15241073
482.00000000	0.15446558
483.00000000	0.15734046
484.00000000	0.16287436
485.00000000	0.16685522
486.00000000	0.16997688
487.00000000	0.17365538
488.00000000	0.18181216
489.00000000	0.18242638
490.00000000	0.19157892
491.00000000	0.20007093
492.00000000	0.20718157
493.00000000	0.22031968
494.00000000	0.22465732
495.00000000	0.23457683
496.00000000	0.24414095
497.00000000	0.25152167
498.00000000	0.26240382
499.00000000	0.27132336
500.00000000	0.27784639
501.00000000	0.29308917
502.00000000	0.30043331
503.00000000	0.31132401
504.00000000	0.31778374
505.00000000	0.33011248
506.00000000	0.33513397
507.00000000	0.34889908
508.00000000	0.35501349
509.00000000	0.36428356
510.00000000	0.36866915
511.00000000	0.38388543
512.00000000	0.39294310
513.00000000	0.39319483
514.00000000	0.41155708
515.00000000	0.41906639
516.00000000	0.42285852
517.00000000	0.42690461
518.00000000	0.43881125
519.00000000	0.43842427
520.00000000	0.44479316
521.00000000	0.44897484
522.00000000	0.45321416
523.00000000	0.45987859
524.00000000	0.47180153
525.00000000	0.47227380
526.00000000	0.48096505
527.00000000	0.48651306
528.00000000	0.48416313
529.00000000	0.49301086
530.00000000	0.49657445
531.00000000	0.50169345
532.00000000	0.49812943
533.00000000	0.50294407
534.00000000	0.50848362
535.00000000	0.51093901
536.00000000	0.51529673
537.00000000	0.52265074
538.00000000	0.52610775
539.00000000	0.52529720
540.00000000	0.52911409
541.00000000	0.54077516
542.00000000	0.54540165
543.00000000	0.55432696
544.00000000	0.54758725
545.00000000	0.55245137
546.00000000	0.55629944
547.00000000	0.56314971
548.00000000	0.56625033
549.00000000	0.56804553
550.00000000	0.57817118
551.00000000	0.58278658
552.00000000	0.58562636
553.00000000	0.59475159
554.00000000	0.59957079
555.00000000	0.61373290
556.00000000	0.61590787
557.00000000	0.62768867
558.00000000	0.63828383
559.00000000	0.64400357
560.00000000	0.64449229
561.00000000	0.65334251
562.00000000	0.65897222
563.00000000	0.66681008
564.00000000	0.66951281
565.00000000	0.67952072
566.00000000	0.69290554
567.00000000	0.69400462
568.00000000	0.70213092
569.00000000	0.71585968
570.00000000	0.70676369
571.00000000	0.72824425
572.00000000	0.73685582
573.00000000	0.74593349
574.00000000	0.75782880
575.00000000	0.75974806
576.00000000	0.77544933
577.00000000	0.79095513
578.00000000	0.79311383
579.00000000	0.79965738
580.00000000	0.80840534
581.00000000	0.82482377
582.00000000	0.83733604
583.00000000	0.84417548
584.00000000	0.87078164
585.00000000	0.87864139
586.00000000	0.88576343
587.00000000	0.90109687
588.00000000	0.89924700
589.00000000	0.90406138
590.00000000	0.91701932
591.00000000	0.92538229
592.00000000	0.92691928
593.00000000	0.94430612
594.00000000	0.94225354
595.00000000	0.95804539
596.00000000	0.95447753
597.00000000	0.95642511
598.00000000	0.97434230
599.00000000	0.97881798
600.00000000	0.98832626
601.00000000	0.98995616
602.00000000	1.00000000
603.00000000	0.99846156
604.00000000	0.99878846
605.00000000	0.99313648
606.00000000	0.98246569
607.00000000	0.98257692
608.00000000	0.97817728
609.00000000	0.98227634
610.00000000	0.98391992
611.00000000	0.97775249
612.00000000	0.97372495
613.00000000	0.96963449
614.00000000	0.96890496
615.00000000	0.97805552
616.00000000	0.96813284
617.00000000	0.97509826
618.00000000	0.97293367
619.00000000	0.96252076
620.00000000	0.95521839
621.00000000	0.94337591
622.00000000	0.93302024
623.00000000	0.93010620
624.00000000	0.91175229
625.00000000	0.89692890
626.00000000	0.89125141
627.00000000	0.88733905
628.00000000	0.86843500
629.00000000	0.85536875
630.00000000	0.84812004
631.00000000	0.83893361
632.00000000	0.81850039
633.00000000	0.81185954
634.00000000	0.79476924
635.00000000	0.79372591
636.00000000	0.77787328
637.00000000	0.75991119
638.00000000	0.75146014
639.00000000	0.73241047
640.00000000	0.71340682
641.00000000	0.70750778
642.00000000	0.69406194
643.00000000	0.68695615
644.00000000	0.66981011
645.00000000	0.66390851
646.00000000	0.64814321
647.00000000	0.63003519
648.00000000	0.61319737
649.00000000	0.60661036
650.00000000	0.59350943
651.00000000	0.58109435
652.00000000	0.56958336
653.00000000	0.55163987
654.00000000	0.54116001
655.00000000	0.52745267
656.00000000	0.51943727
657.00000000	0.50213779
658.00000000	0.49793680
659.00000000	0.48567989
660.00000000	0.46510252
661.00000000	0.46622697
662.00000000	0.44501132
663.00000000	0.43213007
664.00000000	0.42197350
665.00000000	0.41120483
666.00000000	0.40309109
667.00000000	0.39112316
668.00000000	0.37937650
669.00000000	0.37022970
670.00000000	0.35780412
671.00000000	0.35128962
672.00000000	0.34678982
673.00000000	0.33940095
674.00000000	0.32333843
675.00000000	0.30606874
676.00000000	0.30685488
677.00000000	0.29842700
678.00000000	0.29153062
679.00000000	0.27818174
680.00000000	0.27333104
681.00000000	0.26668939
682.00000000	0.25669047
683.00000000	0.24717534
684.00000000	0.24014816
685.00000000	0.23521156
686.00000000	0.22651074
687.00000000	0.22725327
688.00000000	0.21117506
689.00000000	0.20989228
690.00000000	0.20126384
691.00000000	0.19501755
692.00000000	0.19040224
693.00000000	0.18787663
694.00000000	0.18413092
695.00000000	0.17701302
696.00000000	0.17453090
697.00000000	0.16345248
698.00000000	0.15719992
699.00000000	0.15743208
700.00000000	0.15780449
701.00000000	0.15086737
702.00000000	0.14037724
703.00000000	0.13838323
704.00000000	0.13429740
705.00000000	0.12651306
706.00000000	0.12109950
707.00000000	0.12361994
708.00000000	0.12162863
709.00000000	0.10793476
710.00000000	0.11262939
711.00000000	0.10682492
712.00000000	0.10122798
713.00000000	0.09895012
714.00000000	0.09507694
715.00000000	0.09295244
716.00000000	0.08625296
717.00000000	0.08747666
718.00000000	0.08722782
719.00000000	0.07736726
720.00000000	0.08225192
721.00000000	0.08042135
722.00000000	0.07664356
723.00000000	0.06626626
724.00000000	0.06962380
725.00000000	0.06325327
