#LICA Lamps Spectra Database
#Website 1: https://guaix.fis.ucm.es/lamps_spectra
#Website 2: http://carlostapia.es/lamparas/lamps.html
#Latest update: 2017/12/17
#Tester: Carlos Eugenio Tapia Ayuga
#Correct for Electrical Dark: Yes (JAZA2310)
#Correct for Detector Non-linearity: Yes (JAZA2310)
#Correct for Flux: Yes
#Start wavelength (nm): 300
#End wavelength (nm): 900
#Steps (nm):	1
#Locus: D65 sRGB Gamma 1 CIE1931
#XYZ coordinates: 0.0536	0.0313	0.3373
#xyY coordinates: 0.1269	0.0743	0.0313
#sRGB: 0	5	90
#CCT Lindbloom (K):	0
#CCT McCamy (K):	2101
#CCT Hernández-Andrés (K):	0
#Melatonin: 6.435
#Chlorophyll a: -0.001
#Chlorophyll b: 6.904
#Beta Carotene: -0.020
#Manufacturer: Kingbright
#Luminance manufacturer: 1100mc
#Other data: Kingbright Blue 465nm
#Begin Processed Spectral Data
W	S
475.00000000	0.71151025
476.00000000	0.65916965
477.00000000	0.61822133
478.00000000	0.56379113
479.00000000	0.52954534
480.00000000	0.49051609
481.00000000	0.45683288
482.00000000	0.41848960
483.00000000	0.38741103
484.00000000	0.36257923
485.00000000	0.33539379
486.00000000	0.30829826
487.00000000	0.27962353
488.00000000	0.25564839
489.00000000	0.23363014
490.00000000	0.20860363
491.00000000	0.19215221
492.00000000	0.17700071
493.00000000	0.16170210
494.00000000	0.14538768
495.00000000	0.13434971
496.00000000	0.12134327
497.00000000	0.11193573
498.00000000	0.10147803
499.00000000	0.09266413
500.00000000	0.08621593
501.00000000	0.07674109
502.00000000	0.06928609
503.00000000	0.06563731
504.00000000	0.05869156
505.00000000	0.05239998
506.00000000	0.04876880
507.00000000	0.04453830
508.00000000	0.04008505
509.00000000	0.03585526
510.00000000	0.03403388
511.00000000	0.03012912
512.00000000	0.02746269
513.00000000	0.02523171
514.00000000	0.02224580
515.00000000	0.02097407
516.00000000	0.01908627
517.00000000	0.01774795
518.00000000	0.01601553
519.00000000	0.01397754
520.00000000	0.01324957
521.00000000	0.01219217
522.00000000	0.01109881
523.00000000	0.01064687
524.00000000	0.00942592
525.00000000	0.00834532
526.00000000	0.00791497
527.00000000	0.00709343
528.00000000	0.00701051
529.00000000	0.00634583
530.00000000	0.00586149
531.00000000	0.00578105
532.00000000	0.00466483
533.00000000	0.00426739
534.00000000	0.00417477
535.00000000	0.00421881
536.00000000	0.00351037
537.00000000	0.00333385
538.00000000	0.00276193
539.00000000	0.00314194
540.00000000	0.00318282
541.00000000	0.00233226
542.00000000	0.00185022
543.00000000	0.00204314
544.00000000	0.00181891
545.00000000	0.00165935
546.00000000	0.00125521
547.00000000	0.00197136
548.00000000	0.00155734
549.00000000	0.00078955
550.00000000	0.00121726
551.00000000	0.00138793
552.00000000	0.00093494
553.00000000	0.00095321
554.00000000	0.00070795
555.00000000	0.00069028
556.00000000	0.00086045
557.00000000	0.00106592
558.00000000	0.00084226
559.00000000	0.00088622
560.00000000	0.00123097
561.00000000	0.00113149
562.00000000	0.00131942
563.00000000	0.00071787
564.00000000	0.00066797
565.00000000	0.00038327
566.00000000	0.00054457
567.00000000	0.00062934
568.00000000	0.00070536
569.00000000	0.00061104
570.00000000	0.00029265
571.00000000	0.00014069
572.00000000	0.00002458
573.00000000	0.00005314
574.00000000	0.00008640
575.00000000	0.00018302
576.00000000	0.00065413
577.00000000	0.00001509
578.00000000	0.00092626
579.00000000	0.00123564
580.00000000	0.00083076
581.00000000	0.00041571
582.00000000	0.00020485
583.00000000	0.00056859
584.00000000	0.00013586
585.00000000	0.00072663
586.00000000	0.00019516
587.00000000	0.00000000
588.00000000	0.00020143
589.00000000	0.00054694
590.00000000	0.00070165
591.00000000	0.00016383
592.00000000	0.00000510
593.00000000	0.00000000
594.00000000	0.00006790
595.00000000	0.00000001
596.00000000	0.00022769
597.00000000	0.00006074
598.00000000	0.00019325
599.00000000	0.00016604
600.00000000	0.00034689
601.00000000	0.00021239
602.00000000	0.00000000
603.00000000	0.00000000
604.00000000	0.00001671
605.00000000	0.00009657
606.00000000	0.00000001
607.00000000	0.00013177
608.00000000	0.00000000
609.00000000	0.00000180
610.00000000	0.00000000
611.00000000	0.00000000
612.00000000	0.00000000
613.00000000	0.00000000
614.00000000	0.00000000
615.00000000	0.00005344
616.00000000	0.00000000
617.00000000	0.00000055
618.00000000	0.00000000
619.00000000	0.00053092
620.00000000	0.00065932
621.00000000	0.00017058
622.00000000	0.00000018
623.00000000	0.00022217
624.00000000	0.00019112
625.00000000	0.00000000
626.00000000	0.00048088
627.00000000	0.00000305
628.00000000	0.00000000
629.00000000	0.00000000
630.00000000	0.00031526
631.00000000	0.00024978
632.00000000	0.00036534
633.00000000	0.00091944
634.00000000	0.00016543
635.00000000	0.00000057
636.00000000	0.00000000
637.00000000	0.00004293
638.00000000	0.00000635
639.00000000	0.00000000
640.00000000	0.00000000
641.00000000	0.00000000
642.00000000	0.00005970
643.00000000	0.00000000
644.00000000	0.00000000
645.00000000	0.00042190
646.00000000	0.00000000
647.00000000	0.00004356
648.00000000	0.00119179
649.00000000	0.00000000
650.00000000	0.00000551
651.00000000	0.00010012
652.00000000	0.00011303
653.00000000	0.00001543
654.00000000	0.00028253
655.00000000	0.00000558
656.00000000	0.00011565
657.00000000	0.00000000
658.00000000	0.00000000
659.00000000	0.00000000
660.00000000	0.00047016
661.00000000	0.00000000
662.00000000	0.00000000
663.00000000	0.00003042
664.00000000	0.00012140
665.00000000	0.00000000
666.00000000	0.00017199
667.00000000	0.00017323
668.00000000	0.00000254
669.00000000	0.00000000
670.00000000	0.00092439
671.00000000	0.00000569
672.00000000	0.00003540
673.00000000	0.00000000
674.00000000	0.00000000
675.00000000	0.00141242
676.00000000	0.00000000
677.00000000	0.00000000
678.00000000	0.00000000
679.00000000	0.00007793
680.00000000	0.00179270
681.00000000	0.00000000
682.00000000	0.00000035
683.00000000	0.00017607
684.00000000	0.00030212
685.00000000	0.00040579
686.00000000	0.00000000
687.00000000	0.00048356
688.00000000	0.00000000
689.00000000	0.00000000
690.00000000	0.00000000
691.00000000	0.00000000
692.00000000	0.00000000
693.00000000	0.00000000
694.00000000	0.00000000
695.00000000	0.00000000
696.00000000	0.00035334
697.00000000	0.00066045
698.00000000	0.00000000
699.00000000	0.00026179
700.00000000	0.00000000
701.00000000	0.00046688
702.00000000	0.00000000
703.00000000	0.00000000
704.00000000	0.00000000
705.00000000	0.00000000
706.00000000	0.00000000
707.00000000	0.00001127
708.00000000	0.00000625
709.00000000	0.00000000
710.00000000	0.00000000
711.00000000	0.00000000
712.00000000	0.00000072
713.00000000	0.00024624
714.00000000	0.00000000
715.00000000	0.00000000
716.00000000	0.00004299
717.00000000	0.00029392
718.00000000	0.00000000
719.00000000	0.00048300
720.00000000	0.00018385
721.00000000	0.00000000
722.00000000	0.00027016
723.00000000	0.00000000
724.00000000	0.00000000
725.00000000	0.00001102
