#LICA Lamps Spectra Database
#Website 1: https://guaix.fis.ucm.es/lamps_spectra
#Website 2: http://carlostapia.es/lamparas/lamps.html
#Latest update: 2017/12/15
#Tester: Carlos Eugenio Tapia Ayuga
#Correct for Electrical Dark: Yes (JAZA2310)
#Correct for Detector Non-linearity: Yes (JAZA2310)
#Correct for Flux: Yes
#Start wavelength (nm): 300
#End wavelength (nm): 900
#Steps (nm):	1
#Locus: D65 sRGB Gamma 1 CIE1931
#XYZ coordinates: 0.7872	0.7154	0.3145
#xyY coordinates: 0.4332	0.3936	0.7154
#sRGB: 255	117	45
#CCT Lindbloom (K):	2977
#CCT McCamy (K):	2982
#CCT Hernández-Andrés (K):	2938
#Melatonin: 0.340
#Chlorophyll a: 0.174
#Chlorophyll b: 0.618
#Beta Carotene: 0.175
#Manufacturer: Philips
#Luminance manufacturer: Unknown
#Other data:
#Begin Processed Spectral Data
W	S
475.00000000	0.09822388
476.00000000	0.09999765
477.00000000	0.09174390
478.00000000	0.08970740
479.00000000	0.08583006
480.00000000	0.08624452
481.00000000	0.08451202
482.00000000	0.08837389
483.00000000	0.08522579
484.00000000	0.08817840
485.00000000	0.08850973
486.00000000	0.09022997
487.00000000	0.09142282
488.00000000	0.09670072
489.00000000	0.09666770
490.00000000	0.10165355
491.00000000	0.10653948
492.00000000	0.11307394
493.00000000	0.11679251
494.00000000	0.12223367
495.00000000	0.13174951
496.00000000	0.13990791
497.00000000	0.14838839
498.00000000	0.15728820
499.00000000	0.16832518
500.00000000	0.17914626
501.00000000	0.18786297
502.00000000	0.19497970
503.00000000	0.20970762
504.00000000	0.21655027
505.00000000	0.23288989
506.00000000	0.23879336
507.00000000	0.25262455
508.00000000	0.26002514
509.00000000	0.27463726
510.00000000	0.28710357
511.00000000	0.30064323
512.00000000	0.31087631
513.00000000	0.31899589
514.00000000	0.33206559
515.00000000	0.34689776
516.00000000	0.35542134
517.00000000	0.36400786
518.00000000	0.37236618
519.00000000	0.38666051
520.00000000	0.39176047
521.00000000	0.40262781
522.00000000	0.41179617
523.00000000	0.42282563
524.00000000	0.43603468
525.00000000	0.44646685
526.00000000	0.44964839
527.00000000	0.46650199
528.00000000	0.47121569
529.00000000	0.48085486
530.00000000	0.48879795
531.00000000	0.49459166
532.00000000	0.50184040
533.00000000	0.50583854
534.00000000	0.51160645
535.00000000	0.52501269
536.00000000	0.53210876
537.00000000	0.54242111
538.00000000	0.54713192
539.00000000	0.55928669
540.00000000	0.56162659
541.00000000	0.57603343
542.00000000	0.58035064
543.00000000	0.59501591
544.00000000	0.59585778
545.00000000	0.60566742
546.00000000	0.61515468
547.00000000	0.62246702
548.00000000	0.63166172
549.00000000	0.63885230
550.00000000	0.64623490
551.00000000	0.65558749
552.00000000	0.66564755
553.00000000	0.68274389
554.00000000	0.69378285
555.00000000	0.69725759
556.00000000	0.71160853
557.00000000	0.72550021
558.00000000	0.74349525
559.00000000	0.74077359
560.00000000	0.75948996
561.00000000	0.76564447
562.00000000	0.77506639
563.00000000	0.78683799
564.00000000	0.79432149
565.00000000	0.80547903
566.00000000	0.81702409
567.00000000	0.82902403
568.00000000	0.83704317
569.00000000	0.84486914
570.00000000	0.84592859
571.00000000	0.85864763
572.00000000	0.87169598
573.00000000	0.87945763
574.00000000	0.88382784
575.00000000	0.89000692
576.00000000	0.89870547
577.00000000	0.91185326
578.00000000	0.91405643
579.00000000	0.91878299
580.00000000	0.92942692
581.00000000	0.92688256
582.00000000	0.94028730
583.00000000	0.94692941
584.00000000	0.95708374
585.00000000	0.96776499
586.00000000	0.97853872
587.00000000	0.97648706
588.00000000	0.98411441
589.00000000	0.97829689
590.00000000	0.98812021
591.00000000	0.98518675
592.00000000	0.98380076
593.00000000	0.99384696
594.00000000	0.99538239
595.00000000	0.99142906
596.00000000	0.99369102
597.00000000	0.98686726
598.00000000	0.99540386
599.00000000	0.99488612
600.00000000	1.00000000
601.00000000	0.99982203
602.00000000	0.99175804
603.00000000	0.99439092
604.00000000	0.99513548
605.00000000	0.96924893
606.00000000	0.96182247
607.00000000	0.95418457
608.00000000	0.95116291
609.00000000	0.94584643
610.00000000	0.93876097
611.00000000	0.93553653
612.00000000	0.91980693
613.00000000	0.91903745
614.00000000	0.91078344
615.00000000	0.91983076
616.00000000	0.90556382
617.00000000	0.89865845
618.00000000	0.89663744
619.00000000	0.89376806
620.00000000	0.88853325
621.00000000	0.86922558
622.00000000	0.85071857
623.00000000	0.85221173
624.00000000	0.83344368
625.00000000	0.82750637
626.00000000	0.81121296
627.00000000	0.80301905
628.00000000	0.79754754
629.00000000	0.77526009
630.00000000	0.77515058
631.00000000	0.75793325
632.00000000	0.73717763
633.00000000	0.73983192
634.00000000	0.72153976
635.00000000	0.70782019
636.00000000	0.69860288
637.00000000	0.67110310
638.00000000	0.66905395
639.00000000	0.65036748
640.00000000	0.65248246
641.00000000	0.62458085
642.00000000	0.61973973
643.00000000	0.61650374
644.00000000	0.60290951
645.00000000	0.58495697
646.00000000	0.57444398
647.00000000	0.56757918
648.00000000	0.55279881
649.00000000	0.54979314
650.00000000	0.53110544
651.00000000	0.52058505
652.00000000	0.50603793
653.00000000	0.49534538
654.00000000	0.49029750
655.00000000	0.47720059
656.00000000	0.46256442
657.00000000	0.46079942
658.00000000	0.44423551
659.00000000	0.44017436
660.00000000	0.42684912
661.00000000	0.41536398
662.00000000	0.40689043
663.00000000	0.39119949
664.00000000	0.38824566
665.00000000	0.38259533
666.00000000	0.36688736
667.00000000	0.36235817
668.00000000	0.34938058
669.00000000	0.34459299
670.00000000	0.33506482
671.00000000	0.32872247
672.00000000	0.32175410
673.00000000	0.31697851
674.00000000	0.30610239
675.00000000	0.29868836
676.00000000	0.28769048
677.00000000	0.28936649
678.00000000	0.28365648
679.00000000	0.26974477
680.00000000	0.26698790
681.00000000	0.25129531
682.00000000	0.25131328
683.00000000	0.24687503
684.00000000	0.23809044
685.00000000	0.22914271
686.00000000	0.22617107
687.00000000	0.22081465
688.00000000	0.21231241
689.00000000	0.20526744
690.00000000	0.19531238
691.00000000	0.19274671
692.00000000	0.19478819
693.00000000	0.18810453
694.00000000	0.18215346
695.00000000	0.17647514
696.00000000	0.17293469
697.00000000	0.16689095
698.00000000	0.16351971
699.00000000	0.15750593
700.00000000	0.15480688
701.00000000	0.15624209
702.00000000	0.15012445
703.00000000	0.14536748
704.00000000	0.13977200
705.00000000	0.13676705
706.00000000	0.12823861
707.00000000	0.12337234
708.00000000	0.12539394
709.00000000	0.12302414
710.00000000	0.11766628
711.00000000	0.11537215
712.00000000	0.11492948
713.00000000	0.10858438
714.00000000	0.10339996
715.00000000	0.09815287
716.00000000	0.09769083
717.00000000	0.10007933
718.00000000	0.09658055
719.00000000	0.09729726
720.00000000	0.08778009
721.00000000	0.08014009
722.00000000	0.08347252
723.00000000	0.08843956
724.00000000	0.07920698
725.00000000	0.07388343
