#LICA Lamps Spectra Database
#Website 1: https://guaix.fis.ucm.es/lamps_spectra
#Website 2: http://carlostapia.es/lamparas/lamps.html
#Latest update: 2018/04/18
#Tester: Carlos Eugenio Tapia Ayuga
#Correct for Electrical Dark: Yes (JAZA2310)
#Correct for Detector Non-linearity: Yes (JAZA2310)
#Correct for Flux: Yes
#Start wavelength (nm): 300
#End wavelength (nm): 900
#Steps (nm):	1
#Locus: D65 sRGB Gamma 1 CIE1931
#XYZ coordinates: 0.3440	0.3275	0.5018
#xyY coordinates: 0.2932	0.2792	0.3275
#sRGB: 92	77	123
#CCT Lindbloom (K):	9086
#CCT McCamy (K):	9000
#CCT Hernández-Andrés (K):	9041
#Melathonin: 0.983
#Chlorophil a: 0.120
#Chlorophil b: 1.481
#Beta Carotene: 0.120
#Manufacturer: Unknown
#Luminance manufacturer: Unknown
#Other data:
#Begin Processed Spectral Data
W	S
475.00000000	0.25150970
476.00000000	0.23255553
477.00000000	0.21562370
478.00000000	0.19965691
479.00000000	0.18729675
480.00000000	0.17629738
481.00000000	0.16777032
482.00000000	0.15594413
483.00000000	0.15049087
484.00000000	0.13959210
485.00000000	0.13990231
486.00000000	0.13308196
487.00000000	0.12770393
488.00000000	0.12622558
489.00000000	0.12287868
490.00000000	0.11854586
491.00000000	0.11878544
492.00000000	0.11835157
493.00000000	0.11616529
494.00000000	0.11630806
495.00000000	0.11793021
496.00000000	0.12053993
497.00000000	0.12596029
498.00000000	0.13061595
499.00000000	0.13429662
500.00000000	0.13768147
501.00000000	0.14301785
502.00000000	0.14945913
503.00000000	0.15642301
504.00000000	0.16182428
505.00000000	0.16773431
506.00000000	0.17541674
507.00000000	0.17962634
508.00000000	0.18791648
509.00000000	0.19596347
510.00000000	0.20402053
511.00000000	0.21191233
512.00000000	0.22114916
513.00000000	0.22747148
514.00000000	0.23525384
515.00000000	0.24188730
516.00000000	0.24769395
517.00000000	0.25268755
518.00000000	0.26083438
519.00000000	0.26637071
520.00000000	0.27185978
521.00000000	0.27633479
522.00000000	0.28199938
523.00000000	0.29056765
524.00000000	0.29845188
525.00000000	0.29945046
526.00000000	0.30598988
527.00000000	0.31176639
528.00000000	0.31403838
529.00000000	0.32295010
530.00000000	0.32501358
531.00000000	0.32428198
532.00000000	0.32846737
533.00000000	0.32930002
534.00000000	0.33473489
535.00000000	0.33703548
536.00000000	0.33738360
537.00000000	0.34403123
538.00000000	0.34463882
539.00000000	0.34539187
540.00000000	0.34638247
541.00000000	0.34968613
542.00000000	0.34882945
543.00000000	0.35811112
544.00000000	0.35492315
545.00000000	0.35789507
546.00000000	0.35497399
547.00000000	0.35956098
548.00000000	0.35715961
549.00000000	0.36011021
550.00000000	0.36107355
551.00000000	0.36319255
552.00000000	0.36564168
553.00000000	0.36711305
554.00000000	0.36244947
555.00000000	0.36448349
556.00000000	0.36839119
557.00000000	0.36882170
558.00000000	0.37129527
559.00000000	0.37323898
560.00000000	0.36976534
561.00000000	0.37244871
562.00000000	0.37013331
563.00000000	0.36638388
564.00000000	0.36498800
565.00000000	0.36527169
566.00000000	0.36664494
567.00000000	0.36587370
568.00000000	0.36058978
569.00000000	0.36142217
570.00000000	0.35741409
571.00000000	0.36023093
572.00000000	0.36406817
573.00000000	0.35792578
574.00000000	0.35442602
575.00000000	0.35198390
576.00000000	0.35069379
577.00000000	0.35328690
578.00000000	0.35261789
579.00000000	0.34734968
580.00000000	0.34933952
581.00000000	0.34582222
582.00000000	0.34396591
583.00000000	0.34543994
584.00000000	0.34375514
585.00000000	0.34219605
586.00000000	0.33911514
587.00000000	0.33774601
588.00000000	0.33426784
589.00000000	0.33097045
590.00000000	0.32857226
591.00000000	0.32878286
592.00000000	0.32971410
593.00000000	0.32048361
594.00000000	0.31766566
595.00000000	0.31440381
596.00000000	0.31314294
597.00000000	0.30976398
598.00000000	0.30670470
599.00000000	0.30191446
600.00000000	0.29766037
601.00000000	0.29930858
602.00000000	0.29739978
603.00000000	0.29493825
604.00000000	0.29239318
605.00000000	0.28568045
606.00000000	0.27851431
607.00000000	0.27569110
608.00000000	0.27219545
609.00000000	0.26896959
610.00000000	0.26346746
611.00000000	0.26448505
612.00000000	0.25903578
613.00000000	0.25691915
614.00000000	0.25213704
615.00000000	0.25593093
616.00000000	0.24851038
617.00000000	0.24646162
618.00000000	0.24367149
619.00000000	0.23989704
620.00000000	0.23777083
621.00000000	0.23111170
622.00000000	0.22731379
623.00000000	0.22496577
624.00000000	0.22092609
625.00000000	0.21869100
626.00000000	0.21437262
627.00000000	0.21152303
628.00000000	0.21038845
629.00000000	0.20564478
630.00000000	0.19702868
631.00000000	0.19759337
632.00000000	0.19592298
633.00000000	0.19002568
634.00000000	0.18898277
635.00000000	0.18720306
636.00000000	0.17978867
637.00000000	0.17962560
638.00000000	0.17382413
639.00000000	0.17022783
640.00000000	0.16917593
641.00000000	0.16446793
642.00000000	0.16288083
643.00000000	0.15984494
644.00000000	0.15476665
645.00000000	0.15533949
646.00000000	0.15045258
647.00000000	0.14734709
648.00000000	0.14620954
649.00000000	0.14267794
650.00000000	0.13947541
651.00000000	0.13551825
652.00000000	0.13093861
653.00000000	0.13225513
654.00000000	0.12946798
655.00000000	0.12320813
656.00000000	0.11932562
657.00000000	0.11809360
658.00000000	0.11941118
659.00000000	0.11489519
660.00000000	0.11318015
661.00000000	0.11162352
662.00000000	0.10609301
663.00000000	0.10421052
664.00000000	0.10206342
665.00000000	0.10068492
666.00000000	0.09742899
667.00000000	0.09739957
668.00000000	0.09490387
669.00000000	0.09337953
670.00000000	0.08906490
671.00000000	0.08682833
672.00000000	0.08583617
673.00000000	0.08704933
674.00000000	0.08336480
675.00000000	0.07846872
676.00000000	0.07872290
677.00000000	0.07696390
678.00000000	0.07261893
679.00000000	0.07398840
680.00000000	0.06887284
681.00000000	0.06937463
682.00000000	0.06644968
683.00000000	0.06697309
684.00000000	0.06546451
685.00000000	0.06668499
686.00000000	0.06168729
687.00000000	0.06022953
688.00000000	0.05876050
689.00000000	0.05670993
690.00000000	0.05464509
691.00000000	0.05626191
692.00000000	0.05274994
693.00000000	0.05164600
694.00000000	0.05360313
695.00000000	0.04825782
696.00000000	0.04896341
697.00000000	0.04593310
698.00000000	0.04907488
699.00000000	0.04420111
700.00000000	0.04659124
701.00000000	0.04395558
702.00000000	0.04130604
703.00000000	0.04119555
704.00000000	0.04072846
705.00000000	0.04210282
706.00000000	0.04030235
707.00000000	0.03676744
708.00000000	0.03827186
709.00000000	0.03557207
710.00000000	0.03662375
711.00000000	0.03640776
712.00000000	0.03543842
713.00000000	0.03125847
714.00000000	0.03238531
715.00000000	0.03016060
716.00000000	0.02870852
717.00000000	0.02809834
718.00000000	0.02925748
719.00000000	0.02717374
720.00000000	0.02746204
721.00000000	0.02604133
722.00000000	0.02616740
723.00000000	0.02610303
724.00000000	0.02540020
725.00000000	0.02559205
