#LICA Lamps Spectra Database
#Website 1: https://guaix.fis.ucm.es/lamps_spectra
#Website 2: http://carlostapia.es/lamparas/lamps.html
#Latest update: 2017/12/15
#Tester: Carlos Eugenio Tapia Ayuga
#Correct for Electrical Dark: Yes (JAZA2310)
#Correct for Detector Non-linearity: Yes (JAZA2310)
#Correct for Flux: Yes
#Start wavelength (nm): 300
#End wavelength (nm): 900
#Steps (nm):	1
#Locus: D65 sRGB Gamma 1 CIE1931
#XYZ coordinates: 0.1255	0.1640	0.0579
#xyY coordinates: 0.3612	0.4721	0.1640
#sRGB: 32	48	9
#CCT Lindbloom (K):	4884
#CCT McCamy (K):	4860
#CCT Hernández-Andrés (K):	4787
#Melatonin: 0.398
#Chlorophyll a: 0.352
#Chlorophyll b: 0.377
#Beta Carotene: 0.353
#Manufacturer: Unknown
#Luminance manufacturer: Unknown
#Other data:
#Begin Processed Spectral Data
W	S
475.00000000	0.01124579
476.00000000	0.01122954
477.00000000	0.01114800
478.00000000	0.01079290
479.00000000	0.01127976
480.00000000	0.01063336
481.00000000	0.00892313
482.00000000	0.00772191
483.00000000	0.00916183
484.00000000	0.01334481
485.00000000	0.01113323
486.00000000	0.01372768
487.00000000	0.01215039
488.00000000	0.01269693
489.00000000	0.01247743
490.00000000	0.01161064
491.00000000	0.01580780
492.00000000	0.01902797
493.00000000	0.01958426
494.00000000	0.01481309
495.00000000	0.01620338
496.00000000	0.01303845
497.00000000	0.01240062
498.00000000	0.01581341
499.00000000	0.01589111
500.00000000	0.01544737
501.00000000	0.01208746
502.00000000	0.01132024
503.00000000	0.00956775
504.00000000	0.01165968
505.00000000	0.01268128
506.00000000	0.01257994
507.00000000	0.01163841
508.00000000	0.01180622
509.00000000	0.01565122
510.00000000	0.01288158
511.00000000	0.01543674
512.00000000	0.01422223
513.00000000	0.01471796
514.00000000	0.01600928
515.00000000	0.01656705
516.00000000	0.02155359
517.00000000	0.05141345
518.00000000	0.09893522
519.00000000	0.10650823
520.00000000	0.10050276
521.00000000	0.07961950
522.00000000	0.04627151
523.00000000	0.02938540
524.00000000	0.02506712
525.00000000	0.02314093
526.00000000	0.02009033
527.00000000	0.01924156
528.00000000	0.01926372
529.00000000	0.01988176
530.00000000	0.02035947
531.00000000	0.02319351
532.00000000	0.02841669
533.00000000	0.03702814
534.00000000	0.08862476
535.00000000	0.58563354
536.00000000	0.86475128
537.00000000	0.95124955
538.00000000	1.00000000
539.00000000	0.69848640
540.00000000	0.44146436
541.00000000	0.30657311
542.00000000	0.19855908
543.00000000	0.11740276
544.00000000	0.07683449
545.00000000	0.10753987
546.00000000	0.65712314
547.00000000	0.78175090
548.00000000	0.82129018
549.00000000	0.80524664
550.00000000	0.43095507
551.00000000	0.19169184
552.00000000	0.10087559
553.00000000	0.06915630
554.00000000	0.05112009
555.00000000	0.04169503
556.00000000	0.03373234
557.00000000	0.03281090
558.00000000	0.02689317
559.00000000	0.02540982
560.00000000	0.02537053
561.00000000	0.02511232
562.00000000	0.02503197
563.00000000	0.02305614
564.00000000	0.02265967
565.00000000	0.02074884
566.00000000	0.02089035
567.00000000	0.02047527
568.00000000	0.02751859
569.00000000	0.03597967
570.00000000	0.03470046
571.00000000	0.03186228
572.00000000	0.03730348
573.00000000	0.03640745
574.00000000	0.04222266
575.00000000	0.06521942
576.00000000	0.16262461
577.00000000	0.33759785
578.00000000	0.42946464
579.00000000	0.61413650
580.00000000	0.62096681
581.00000000	0.48105446
582.00000000	0.37930735
583.00000000	0.21204539
584.00000000	0.10656968
585.00000000	0.07205091
586.00000000	0.05006245
587.00000000	0.04641007
588.00000000	0.09572863
589.00000000	0.25801705
590.00000000	0.40563182
591.00000000	0.47411395
592.00000000	0.49700849
593.00000000	0.41575379
594.00000000	0.27862290
595.00000000	0.17731007
596.00000000	0.13701361
597.00000000	0.11028736
598.00000000	0.09637651
599.00000000	0.08012321
600.00000000	0.07132357
601.00000000	0.06835303
602.00000000	0.06146098
603.00000000	0.05712793
604.00000000	0.05075789
605.00000000	0.04879477
606.00000000	0.04233670
607.00000000	0.04248619
608.00000000	0.03869584
609.00000000	0.04228884
610.00000000	0.03684852
611.00000000	0.03942348
612.00000000	0.03625382
613.00000000	0.03496044
614.00000000	0.03485142
615.00000000	0.03464049
616.00000000	0.03557050
617.00000000	0.03506236
618.00000000	0.03577552
619.00000000	0.03533563
620.00000000	0.03326290
621.00000000	0.03282242
622.00000000	0.03269007
623.00000000	0.02975794
624.00000000	0.03046401
625.00000000	0.03365878
626.00000000	0.03504700
627.00000000	0.03321948
628.00000000	0.03041202
629.00000000	0.02468129
630.00000000	0.03452232
631.00000000	0.02987936
632.00000000	0.02656022
633.00000000	0.02725270
634.00000000	0.02732626
635.00000000	0.02907402
636.00000000	0.02556905
637.00000000	0.02579151
638.00000000	0.03147704
639.00000000	0.02561455
640.00000000	0.02506683
641.00000000	0.02885658
642.00000000	0.03105694
643.00000000	0.02791801
644.00000000	0.02808168
645.00000000	0.02810058
646.00000000	0.02578974
647.00000000	0.02910977
648.00000000	0.02302216
649.00000000	0.02579181
650.00000000	0.02801964
651.00000000	0.03155976
652.00000000	0.03109682
653.00000000	0.02886899
654.00000000	0.03078692
655.00000000	0.03543549
656.00000000	0.03649932
657.00000000	0.03749492
658.00000000	0.04195530
659.00000000	0.03868638
660.00000000	0.03801665
661.00000000	0.03336364
662.00000000	0.03360649
663.00000000	0.02991747
664.00000000	0.03096063
665.00000000	0.02487421
666.00000000	0.02630349
667.00000000	0.02835583
668.00000000	0.02708017
669.00000000	0.03052310
670.00000000	0.03544642
671.00000000	0.03856319
672.00000000	0.03988139
673.00000000	0.03359999
674.00000000	0.03733184
675.00000000	0.03506709
676.00000000	0.02933872
677.00000000	0.02838922
678.00000000	0.03588897
679.00000000	0.03515690
680.00000000	0.02479946
681.00000000	0.02774075
682.00000000	0.03029355
683.00000000	0.03522425
684.00000000	0.02425026
685.00000000	0.02578767
686.00000000	0.03219995
687.00000000	0.03223186
688.00000000	0.02789851
689.00000000	0.02240413
690.00000000	0.03078721
691.00000000	0.03419971
692.00000000	0.03651823
693.00000000	0.03508127
694.00000000	0.03493355
695.00000000	0.03068824
696.00000000	0.03199729
697.00000000	0.02773159
698.00000000	0.02610467
699.00000000	0.03489456
700.00000000	0.02493861
701.00000000	0.03056889
702.00000000	0.03038366
703.00000000	0.04604403
704.00000000	0.02946546
705.00000000	0.03326172
706.00000000	0.03686625
707.00000000	0.03021851
708.00000000	0.03007286
709.00000000	0.03787957
710.00000000	0.04061494
711.00000000	0.03541274
712.00000000	0.03615633
713.00000000	0.03542455
714.00000000	0.03928610
715.00000000	0.03369955
716.00000000	0.03941343
717.00000000	0.03656727
718.00000000	0.03715370
719.00000000	0.03239139
720.00000000	0.03037095
721.00000000	0.03705709
722.00000000	0.03081085
723.00000000	0.03387385
724.00000000	0.03482040
725.00000000	0.03655221
