#LICA Lamps Spectra Database
#Website 1: https://guaix.fis.ucm.es/lamps_spectra
#Website 2: http://carlostapia.es/lamparas/lamps.html
#Latest update: 2017/12/17
#Tester: Carlos Eugenio Tapia Ayuga
#Correct for Electrical Dark: Yes (JAZA2310)
#Correct for Detector Non-linearity: Yes (JAZA2310)
#Correct for Flux: Yes
#Start wavelength (nm): 300
#End wavelength (nm): 900
#Steps (nm):	1
#Locus: D65 sRGB Gamma 1 CIE1931
#XYZ coordinates: 0.0788	0.0456	0.0128
#xyY coordinates: 0.5743	0.3322	0.0456
#sRGB: 46	2	2
#CCT Lindbloom (K):	0
#CCT McCamy (K):	1848
#CCT Hernández-Andrés (K):	281
#Melatonin: 0.215
#Chlorophyll a: 0.078
#Chlorophyll b: 0.458
#Beta Carotene: 0.077
#Manufacturer: Unknown
#Luminance manufacturer: Unknown
#Other data:
#Begin Processed Spectral Data
W	S
475.00000000	0.00000000
476.00000000	0.00000000
477.00000000	0.00066250
478.00000000	0.00000000
479.00000000	0.00084366
480.00000000	0.00007499
481.00000000	0.00005557
482.00000000	0.00000000
483.00000000	0.00032740
484.00000000	0.00000000
485.00000000	0.00010879
486.00000000	0.00000000
487.00000000	0.00021485
488.00000000	0.00000000
489.00000000	0.00000000
490.00000000	0.00000000
491.00000000	0.00086431
492.00000000	0.00174775
493.00000000	0.00074848
494.00000000	0.00009798
495.00000000	0.00105661
496.00000000	0.00000000
497.00000000	0.00000000
498.00000000	0.00035393
499.00000000	0.00024855
500.00000000	0.00000000
501.00000000	0.00006475
502.00000000	0.00000000
503.00000000	0.00010888
504.00000000	0.00000000
505.00000000	0.00000000
506.00000000	0.00000000
507.00000000	0.00007061
508.00000000	0.00001244
509.00000000	0.00006663
510.00000000	0.00043021
511.00000000	0.00000075
512.00000000	0.00000000
513.00000000	0.00000000
514.00000000	0.00000000
515.00000000	0.00000000
516.00000000	0.00000000
517.00000000	0.00011038
518.00000000	0.00000081
519.00000000	0.00001261
520.00000000	0.00023013
521.00000000	0.00000124
522.00000000	0.00115697
523.00000000	0.00014557
524.00000000	0.00000000
525.00000000	0.00001300
526.00000000	0.00000000
527.00000000	0.00057387
528.00000000	0.00053759
529.00000000	0.00007745
530.00000000	0.00070262
531.00000000	0.00070164
532.00000000	0.00093747
533.00000000	0.00124066
534.00000000	0.00152328
535.00000000	0.00116579
536.00000000	0.00152319
537.00000000	0.00491611
538.00000000	0.00855678
539.00000000	0.01071064
540.00000000	0.00546170
541.00000000	0.00472163
542.00000000	0.00402363
543.00000000	0.00335407
544.00000000	0.00489691
545.00000000	0.01601886
546.00000000	0.26846837
547.00000000	0.22715495
548.00000000	0.11952830
549.00000000	0.06452902
550.00000000	0.01522572
551.00000000	0.00608238
552.00000000	0.00399431
553.00000000	0.00475586
554.00000000	0.00474390
555.00000000	0.00547531
556.00000000	0.00600920
557.00000000	0.00552904
558.00000000	0.00543290
559.00000000	0.00634631
560.00000000	0.00569277
561.00000000	0.00679209
562.00000000	0.00664373
563.00000000	0.00796557
564.00000000	0.00633066
565.00000000	0.00632460
566.00000000	0.00757255
567.00000000	0.00758092
568.00000000	0.00641396
569.00000000	0.00735968
570.00000000	0.00748371
571.00000000	0.00725439
572.00000000	0.00753522
573.00000000	0.00894148
574.00000000	0.00975714
575.00000000	0.01029004
576.00000000	0.01062720
577.00000000	0.05350942
578.00000000	0.04018017
579.00000000	0.06341113
580.00000000	0.05050077
581.00000000	0.02802462
582.00000000	0.02335619
583.00000000	0.01490454
584.00000000	0.01380516
585.00000000	0.01639041
586.00000000	0.02145665
587.00000000	0.02455349
588.00000000	0.02721525
589.00000000	0.02604612
590.00000000	0.02489998
591.00000000	0.02606948
592.00000000	0.02558686
593.00000000	0.06119830
594.00000000	0.13213690
595.00000000	0.19007214
596.00000000	0.11757620
597.00000000	0.08360121
598.00000000	0.05121031
599.00000000	0.03376210
600.00000000	0.02867578
601.00000000	0.02384693
602.00000000	0.02352465
603.00000000	0.02461569
604.00000000	0.02621798
605.00000000	0.02774897
606.00000000	0.03105408
607.00000000	0.03163248
608.00000000	0.03972006
609.00000000	0.07664790
610.00000000	0.11051295
611.00000000	0.09847113
612.00000000	0.09473409
613.00000000	0.10386346
614.00000000	0.14857673
615.00000000	0.48307470
616.00000000	0.69108195
617.00000000	0.40950529
618.00000000	0.38537804
619.00000000	0.85107435
620.00000000	1.00000000
621.00000000	0.59800454
622.00000000	0.42376880
623.00000000	0.23339722
624.00000000	0.12572560
625.00000000	0.09278527
626.00000000	0.08011272
627.00000000	0.07083776
628.00000000	0.06110602
629.00000000	0.05448437
630.00000000	0.05132866
631.00000000	0.04439893
632.00000000	0.03600181
633.00000000	0.03435768
634.00000000	0.02985100
635.00000000	0.02751409
636.00000000	0.02548103
637.00000000	0.02483744
638.00000000	0.02311398
639.00000000	0.02003742
640.00000000	0.01895338
641.00000000	0.02025980
642.00000000	0.01732644
643.00000000	0.01721342
644.00000000	0.01852828
645.00000000	0.01857541
646.00000000	0.01844667
647.00000000	0.01878812
648.00000000	0.02754405
649.00000000	0.03422281
650.00000000	0.03364409
651.00000000	0.03398989
652.00000000	0.03958485
653.00000000	0.04092384
654.00000000	0.03642110
655.00000000	0.03240601
656.00000000	0.02457112
657.00000000	0.02078279
658.00000000	0.01850333
659.00000000	0.01417645
660.00000000	0.01366031
661.00000000	0.01302606
662.00000000	0.01148020
663.00000000	0.01213876
664.00000000	0.01041392
665.00000000	0.01008852
666.00000000	0.01097209
667.00000000	0.00951947
668.00000000	0.01096049
669.00000000	0.00852752
670.00000000	0.01075505
671.00000000	0.00821002
672.00000000	0.00762173
673.00000000	0.00720207
674.00000000	0.00667227
675.00000000	0.00900858
676.00000000	0.00561415
677.00000000	0.00830870
678.00000000	0.00511756
679.00000000	0.00390714
680.00000000	0.00546087
681.00000000	0.00515068
682.00000000	0.00416253
683.00000000	0.00490796
684.00000000	0.00591754
685.00000000	0.00545018
686.00000000	0.00264935
687.00000000	0.00505356
688.00000000	0.00682710
689.00000000	0.00756677
690.00000000	0.00903620
691.00000000	0.01198654
692.00000000	0.01166678
693.00000000	0.01358056
694.00000000	0.01409985
695.00000000	0.01769814
696.00000000	0.02284784
697.00000000	0.05122887
698.00000000	0.19405117
699.00000000	0.33339504
700.00000000	0.22446502
701.00000000	0.15871199
702.00000000	0.09947313
703.00000000	0.07823140
704.00000000	0.15105825
705.00000000	0.19650240
706.00000000	0.14435478
707.00000000	0.10104725
708.00000000	0.06049278
709.00000000	0.03039455
710.00000000	0.01465577
711.00000000	0.00962962
712.00000000	0.00758003
713.00000000	0.00622010
714.00000000	0.00344670
715.00000000	0.00452075
716.00000000	0.00154177
717.00000000	0.00579358
718.00000000	0.00194053
719.00000000	0.00479462
720.00000000	0.00137680
721.00000000	0.00182039
722.00000000	0.00235406
723.00000000	0.00070667
724.00000000	0.00000000
725.00000000	0.00211939
