#LICA Lamps Spectra Database
#Website 1: https://guaix.fis.ucm.es/lamps_spectra
#Website 2: http://carlostapia.es/lamparas/lamps.html
#Latest update: 2018/04/15
#Tester: Carlos Eugenio Tapia Ayuga
#Correct for Electrical Dark: Yes (JAZA2310)
#Correct for Detector Non-linearity: Yes (JAZA2310)
#Correct for Flux: Yes
#Start wavelength (nm): 300
#End wavelength (nm): 900
#Steps (nm):	1
#Locus: D65 sRGB Gamma 1 CIE1931
#XYZ coordinates: 0.0496	0.0150	0.2677
#xyY coordinates: 0.1492	0.0452	0.0150
#sRGB: 1	0	72
#CCT Lindbloom (K):	---
#CCT McCamy (K):	1621
#CCT Hernández-Andrés (K):	332
#Melatonin: 10.575
#Chlorophyll a: 0.566
#Chlorophyll b: 13.057
#Beta Carotene: 0.561
#Manufacturer: unknown
#Luminance manufacturer: Unknown
#Other data:
#Begin Processed Spectral Data
W	S
475.00000000	0.19422739
476.00000000	0.18558575
477.00000000	0.17391940
478.00000000	0.16643216
479.00000000	0.15872595
480.00000000	0.15160623
481.00000000	0.14420792
482.00000000	0.13440119
483.00000000	0.12773097
484.00000000	0.12275799
485.00000000	0.11630524
486.00000000	0.10828512
487.00000000	0.10216344
488.00000000	0.09630669
489.00000000	0.08861652
490.00000000	0.08421804
491.00000000	0.07920499
492.00000000	0.07525643
493.00000000	0.06981656
494.00000000	0.06420815
495.00000000	0.05990323
496.00000000	0.05472779
497.00000000	0.05195458
498.00000000	0.04827894
499.00000000	0.04461833
500.00000000	0.04075969
501.00000000	0.03885745
502.00000000	0.03551417
503.00000000	0.03367803
504.00000000	0.03033569
505.00000000	0.02764585
506.00000000	0.02555083
507.00000000	0.02341319
508.00000000	0.02236352
509.00000000	0.02044645
510.00000000	0.01897800
511.00000000	0.01783358
512.00000000	0.01709872
513.00000000	0.01492443
514.00000000	0.01432073
515.00000000	0.01277457
516.00000000	0.01196030
517.00000000	0.01154392
518.00000000	0.01039937
519.00000000	0.00971738
520.00000000	0.00895356
521.00000000	0.00824601
522.00000000	0.00799746
523.00000000	0.00717499
524.00000000	0.00698183
525.00000000	0.00621736
526.00000000	0.00557207
527.00000000	0.00506384
528.00000000	0.00446665
529.00000000	0.00459338
530.00000000	0.00418290
531.00000000	0.00419937
532.00000000	0.00347691
533.00000000	0.00308581
534.00000000	0.00247367
535.00000000	0.00244420
536.00000000	0.00292799
537.00000000	0.00253980
538.00000000	0.00230070
539.00000000	0.00166159
540.00000000	0.00159224
541.00000000	0.00138855
542.00000000	0.00145654
543.00000000	0.00139485
544.00000000	0.00136187
545.00000000	0.01335209
546.00000000	0.02666958
547.00000000	0.01570404
548.00000000	0.00955588
549.00000000	0.00741249
550.00000000	0.00354826
551.00000000	0.00182501
552.00000000	0.00133461
553.00000000	0.00083211
554.00000000	0.00078759
555.00000000	0.00085538
556.00000000	0.00070263
557.00000000	0.00071774
558.00000000	0.00025772
559.00000000	0.00123495
560.00000000	0.00007418
561.00000000	0.00074872
562.00000000	0.00031335
563.00000000	0.00036595
564.00000000	0.00093705
565.00000000	0.00055053
566.00000000	0.00082096
567.00000000	0.00101197
568.00000000	0.00126290
569.00000000	0.00101733
570.00000000	0.00110678
571.00000000	0.00122908
572.00000000	0.00113422
573.00000000	0.00067927
574.00000000	0.00080426
575.00000000	0.00059923
576.00000000	0.00132916
577.00000000	0.00168110
578.00000000	0.00178337
579.00000000	0.00237983
580.00000000	0.00227598
581.00000000	0.00116128
582.00000000	0.00084497
583.00000000	0.00094386
584.00000000	0.00074421
585.00000000	0.00042711
586.00000000	0.00114220
587.00000000	0.00061135
588.00000000	0.00146514
589.00000000	0.00001280
590.00000000	0.00033417
591.00000000	0.00013043
592.00000000	0.00071317
593.00000000	0.00101229
594.00000000	0.00092705
595.00000000	0.00043771
596.00000000	0.00111342
597.00000000	0.00062355
598.00000000	0.00079957
599.00000000	0.00037457
600.00000000	0.00009561
601.00000000	0.00066179
602.00000000	0.00057324
603.00000000	0.00141826
604.00000000	0.00018542
605.00000000	0.00070956
606.00000000	0.00052269
607.00000000	0.00095299
608.00000000	0.00011185
609.00000000	0.00006077
610.00000000	0.00040116
611.00000000	0.00076272
612.00000000	0.00002211
613.00000000	0.00030253
614.00000000	0.00000128
615.00000000	0.00031233
616.00000000	0.00123770
617.00000000	0.00004052
618.00000000	0.00021637
619.00000000	0.00153184
620.00000000	0.00030714
621.00000000	0.00105267
622.00000000	0.00005091
623.00000000	0.00023808
624.00000000	0.00027419
625.00000000	0.00001347
626.00000000	0.00048986
627.00000000	0.00003036
628.00000000	0.00095768
629.00000000	0.00028880
630.00000000	0.00000000
631.00000000	0.00009759
632.00000000	0.00052698
633.00000000	0.00088432
634.00000000	0.00037601
635.00000000	0.00000000
636.00000000	0.00010954
637.00000000	0.00093627
638.00000000	0.00000064
639.00000000	0.00023570
640.00000000	0.00060605
641.00000000	0.00008951
642.00000000	0.00000000
643.00000000	0.00000411
644.00000000	0.00034301
645.00000000	0.00000000
646.00000000	0.00013623
647.00000000	0.00000000
648.00000000	0.00010469
649.00000000	0.00000000
650.00000000	0.00057603
651.00000000	0.00000000
652.00000000	0.00000650
653.00000000	0.00000000
654.00000000	0.00015826
655.00000000	0.00000000
656.00000000	0.00006301
657.00000000	0.00002436
658.00000000	0.00067316
659.00000000	0.00073490
660.00000000	0.00013349
661.00000000	0.00092090
662.00000000	0.00145893
663.00000000	0.00124910
664.00000000	0.00000000
665.00000000	0.00137473
666.00000000	0.00011184
667.00000000	0.00082784
668.00000000	0.00228998
669.00000000	0.00163722
670.00000000	0.00035014
671.00000000	0.00201638
672.00000000	0.00170877
673.00000000	0.00156938
674.00000000	0.00247773
675.00000000	0.00166482
676.00000000	0.00202427
677.00000000	0.00330430
678.00000000	0.00299123
679.00000000	0.00215298
680.00000000	0.00241844
681.00000000	0.00177374
682.00000000	0.00212528
683.00000000	0.00181381
684.00000000	0.00221198
685.00000000	0.00304156
686.00000000	0.00235316
687.00000000	0.00310874
688.00000000	0.00194940
689.00000000	0.00397985
690.00000000	0.00743891
691.00000000	0.00646957
692.00000000	0.00631193
693.00000000	0.00420646
694.00000000	0.00405714
695.00000000	0.00660183
696.00000000	0.03864334
697.00000000	0.03448992
698.00000000	0.02006963
699.00000000	0.01440164
700.00000000	0.01179467
701.00000000	0.00582515
702.00000000	0.00378685
703.00000000	0.00456592
704.00000000	0.00238004
705.00000000	0.00448842
706.00000000	0.03189089
707.00000000	0.03441003
708.00000000	0.01966994
709.00000000	0.01517697
710.00000000	0.00963764
711.00000000	0.00656225
712.00000000	0.00415183
713.00000000	0.00219037
714.00000000	0.00703542
715.00000000	0.00595311
716.00000000	0.00518187
717.00000000	0.00345912
718.00000000	0.00220577
719.00000000	0.00265700
720.00000000	0.00211762
721.00000000	0.00143913
722.00000000	0.00253758
723.00000000	0.00185487
724.00000000	0.00112404
725.00000000	0.00356456
