#LICA Lamps Spectra Database
#Website 1: https://guaix.fis.ucm.es/lamps_spectra
#Website 2: http://carlostapia.es/lamparas/lamps.html
#Latest update: 2017/12/17
#Tester: Carlos Eugenio Tapia Ayuga
#Correct for Electrical Dark: Yes (JAZA2310)
#Correct for Detector Non-linearity: Yes (JAZA2310)
#Correct for Flux: Yes
#Start wavelength (nm): 300
#End wavelength (nm): 900
#Steps (nm):	1
#Locus: D65 sRGB Gamma 1 CIE1931
#XYZ coordinates: 0.0714	0.1635	0.0398
#xyY coordinates: 0.2599	0.5952	0.1635
#sRGB: 0	61	3
#CCT Lindbloom (K):	6801
#CCT McCamy (K):	6833
#CCT Hernández-Andrés (K):	6739
#Melatonin: 0.375
#Chlorophyll a: 0.004
#Chlorophyll b: 0.206
#Beta Carotene: 0.005
#Manufacturer: unknown
#Luminance manufacturer: Unknown
#Other data:
#Begin Processed Spectral Data
W	S
475.00000000	0.00105948
476.00000000	0.00134319
477.00000000	0.00140232
478.00000000	0.00287643
479.00000000	0.00144468
480.00000000	0.00226869
481.00000000	0.00203862
482.00000000	0.00341699
483.00000000	0.00242994
484.00000000	0.00350150
485.00000000	0.00575296
486.00000000	0.00536294
487.00000000	0.00443334
488.00000000	0.00903097
489.00000000	0.01070042
490.00000000	0.01095378
491.00000000	0.01614626
492.00000000	0.01937534
493.00000000	0.02079292
494.00000000	0.01996610
495.00000000	0.02666985
496.00000000	0.02748815
497.00000000	0.03382518
498.00000000	0.03791501
499.00000000	0.04319477
500.00000000	0.05041968
501.00000000	0.05700880
502.00000000	0.06362284
503.00000000	0.06941205
504.00000000	0.08011276
505.00000000	0.09092941
506.00000000	0.10000966
507.00000000	0.11073703
508.00000000	0.12043135
509.00000000	0.13435625
510.00000000	0.14913390
511.00000000	0.16209384
512.00000000	0.17702184
513.00000000	0.18949170
514.00000000	0.20595252
515.00000000	0.22596005
516.00000000	0.23755851
517.00000000	0.25095367
518.00000000	0.27029475
519.00000000	0.27825557
520.00000000	0.29293273
521.00000000	0.30552566
522.00000000	0.31583435
523.00000000	0.32265356
524.00000000	0.33019667
525.00000000	0.33629290
526.00000000	0.34144880
527.00000000	0.34612224
528.00000000	0.34859741
529.00000000	0.35012003
530.00000000	0.34937633
531.00000000	0.35253242
532.00000000	0.34289663
533.00000000	0.34297878
534.00000000	0.33995650
535.00000000	0.33605968
536.00000000	0.32974127
537.00000000	0.31925953
538.00000000	0.31572325
539.00000000	0.30804987
540.00000000	0.29693124
541.00000000	0.29402973
542.00000000	0.28284471
543.00000000	0.28219382
544.00000000	0.26931383
545.00000000	0.30244006
546.00000000	1.00000000
547.00000000	0.72073537
548.00000000	0.42533089
549.00000000	0.29952436
550.00000000	0.23482558
551.00000000	0.21420556
552.00000000	0.20743089
553.00000000	0.19733414
554.00000000	0.18963047
555.00000000	0.18179176
556.00000000	0.17409749
557.00000000	0.16517139
558.00000000	0.15957313
559.00000000	0.15234820
560.00000000	0.14800971
561.00000000	0.14105154
562.00000000	0.13621265
563.00000000	0.12570031
564.00000000	0.12107117
565.00000000	0.11860678
566.00000000	0.11041021
567.00000000	0.10796012
568.00000000	0.10132542
569.00000000	0.09931649
570.00000000	0.09060550
571.00000000	0.08546328
572.00000000	0.08321190
573.00000000	0.07823780
574.00000000	0.07402231
575.00000000	0.06871253
576.00000000	0.07779710
577.00000000	0.17611734
578.00000000	0.11783839
579.00000000	0.17568112
580.00000000	0.12219275
581.00000000	0.07871667
582.00000000	0.06155855
583.00000000	0.05293142
584.00000000	0.04702800
585.00000000	0.04557132
586.00000000	0.04465276
587.00000000	0.03817454
588.00000000	0.03608222
589.00000000	0.03758005
590.00000000	0.03559663
591.00000000	0.03307587
592.00000000	0.03097618
593.00000000	0.03027872
594.00000000	0.03042890
595.00000000	0.02558293
596.00000000	0.02454525
597.00000000	0.02455266
598.00000000	0.02400114
599.00000000	0.02374098
600.00000000	0.02001946
601.00000000	0.02229346
602.00000000	0.01960042
603.00000000	0.01810603
604.00000000	0.01725150
605.00000000	0.01645915
606.00000000	0.01633981
607.00000000	0.01371649
608.00000000	0.01313020
609.00000000	0.01347515
610.00000000	0.01224305
611.00000000	0.01108621
612.00000000	0.01295375
613.00000000	0.01289969
614.00000000	0.01047668
615.00000000	0.01330290
616.00000000	0.01537554
617.00000000	0.01253243
618.00000000	0.01185646
619.00000000	0.01280549
620.00000000	0.01385274
621.00000000	0.00991460
622.00000000	0.00931861
623.00000000	0.00749993
624.00000000	0.00722436
625.00000000	0.00756675
626.00000000	0.00746318
627.00000000	0.00797652
628.00000000	0.00724874
629.00000000	0.00588813
630.00000000	0.00855617
631.00000000	0.00584083
632.00000000	0.00540602
633.00000000	0.00549703
634.00000000	0.00273696
635.00000000	0.00375036
636.00000000	0.00477355
637.00000000	0.00534757
638.00000000	0.00245851
639.00000000	0.00453907
640.00000000	0.00329633
641.00000000	0.00000000
642.00000000	0.00314375
643.00000000	0.00230466
644.00000000	0.00317271
645.00000000	0.00137592
646.00000000	0.00332279
647.00000000	0.00222070
648.00000000	0.00269102
649.00000000	0.00302330
650.00000000	0.00329958
651.00000000	0.00030848
652.00000000	0.00377038
653.00000000	0.00084815
654.00000000	0.00026052
655.00000000	0.00240046
656.00000000	0.00009464
657.00000000	0.00094877
658.00000000	0.00000000
659.00000000	0.00197980
660.00000000	0.00467099
661.00000000	0.00351696
662.00000000	0.00157588
663.00000000	0.00292964
664.00000000	0.00000000
665.00000000	0.00102869
666.00000000	0.00097412
667.00000000	0.00179577
668.00000000	0.00284830
669.00000000	0.00017090
670.00000000	0.00075021
671.00000000	0.00000000
672.00000000	0.00003783
673.00000000	0.00306550
674.00000000	0.00000000
675.00000000	0.00000000
676.00000000	0.00052327
677.00000000	0.00204373
678.00000000	0.00131365
679.00000000	0.00024999
680.00000000	0.00000000
681.00000000	0.00000000
682.00000000	0.00000000
683.00000000	0.00081943
684.00000000	0.00000000
685.00000000	0.00000000
686.00000000	0.00031533
687.00000000	0.00183084
688.00000000	0.00040891
689.00000000	0.00189119
690.00000000	0.00013079
691.00000000	0.00671393
692.00000000	0.00203587
693.00000000	0.00332913
694.00000000	0.00010776
695.00000000	0.00006789
696.00000000	0.00000001
697.00000000	0.00387709
698.00000000	0.00187488
699.00000000	0.00055766
700.00000000	0.00029566
701.00000000	0.00164411
702.00000000	0.00000000
703.00000000	0.00000000
704.00000000	0.00000000
705.00000000	0.00000000
706.00000000	0.00002900
707.00000000	0.00220982
708.00000000	0.00000000
709.00000000	0.00000000
710.00000000	0.00000000
711.00000000	0.00083790
712.00000000	0.00179915
713.00000000	0.00041077
714.00000000	0.00000000
715.00000000	0.00021916
716.00000000	0.00000000
717.00000000	0.00096471
718.00000000	0.00000989
719.00000000	0.00000000
720.00000000	0.00000000
721.00000000	0.00000000
722.00000000	0.00000000
723.00000000	0.00000000
724.00000000	0.00114769
725.00000000	0.00017667
