#LICA Lamps Spectra Database
#Website 1: https://guaix.fis.ucm.es/lamps_spectra
#Website 2: http://carlostapia.es/lamparas/lamps.html
#Latest update: 2017/12/15
#Tester: Carlos Eugenio Tapia Ayuga
#Correct for Electrical Dark: Yes (JAZA2310)
#Correct for Detector Non-linearity: Yes (JAZA2310)
#Correct for Flux: Yes
#Start wavelength (nm): 300
#End wavelength (nm): 900
#Steps (nm):	1
#Locus: D65 sRGB Gamma 1 CIE1931
#XYZ coordinates: 0.0538	0.0261	0.0000
#xyY coordinates: 0.6731	0.3267	0.0261
#sRGB: 34	0	0
#CCT Lindbloom (K):	1000
#CCT McCamy (K):	3291
#CCT Hernández-Andrés (K):	0
#Melatonin: 0.013
#Chlorophyll a: 4.453
#Chlorophyll b: 1.202
#Beta Carotene: 4.442
#Manufacturer: Oriel
#Luminance manufacturer: Unknown
#Other data:
#Begin Processed Spectral Data
W	S
475.00000000	0.00000000
476.00000000	0.00000000
477.00000000	0.00003798
478.00000000	0.00000000
479.00000000	0.00000000
480.00000000	0.00000000
481.00000000	0.00000000
482.00000000	0.00000000
483.00000000	0.00000000
484.00000000	0.00000000
485.00000000	0.00000000
486.00000000	0.00006322
487.00000000	0.00000000
488.00000000	0.00000000
489.00000000	0.00000000
490.00000000	0.00000000
491.00000000	0.00000000
492.00000000	0.00000000
493.00000000	0.00000000
494.00000000	0.00000000
495.00000000	0.00000000
496.00000000	0.00000000
497.00000000	0.00000000
498.00000000	0.00000000
499.00000000	0.00000000
500.00000000	0.00000000
501.00000000	0.00000000
502.00000000	0.00000000
503.00000000	0.00000000
504.00000000	0.00005265
505.00000000	0.00000000
506.00000000	0.00000000
507.00000000	0.00000000
508.00000000	0.00000000
509.00000000	0.00000000
510.00000000	0.00000000
511.00000000	0.00000000
512.00000000	0.00034838
513.00000000	0.00000000
514.00000000	0.00000000
515.00000000	0.00000000
516.00000000	0.00000000
517.00000000	0.00000000
518.00000000	0.00000000
519.00000000	0.00000000
520.00000000	0.00000000
521.00000000	0.00000000
522.00000000	0.00000000
523.00000000	0.00000000
524.00000000	0.00000000
525.00000000	0.00000000
526.00000000	0.00000000
527.00000000	0.00000000
528.00000000	0.00000000
529.00000000	0.00000000
530.00000000	0.00000000
531.00000000	0.00000000
532.00000000	0.00000000
533.00000000	0.00100943
534.00000000	0.00126622
535.00000000	0.00059901
536.00000000	0.00000000
537.00000000	0.00000000
538.00000000	0.00000000
539.00000000	0.00018827
540.00000000	0.00149505
541.00000000	0.00102713
542.00000000	0.00000000
543.00000000	0.00000000
544.00000000	0.00000000
545.00000000	0.00000000
546.00000000	0.00024955
547.00000000	0.00000000
548.00000000	0.00000000
549.00000000	0.00000000
550.00000000	0.00017586
551.00000000	0.00000000
552.00000000	0.00000000
553.00000000	0.00000000
554.00000000	0.00000000
555.00000000	0.00000000
556.00000000	0.00000000
557.00000000	0.00000000
558.00000000	0.00000000
559.00000000	0.00000000
560.00000000	0.00000000
561.00000000	0.00000000
562.00000000	0.00000000
563.00000000	0.00000000
564.00000000	0.00000000
565.00000000	0.00000000
566.00000000	0.00005125
567.00000000	0.00000000
568.00000000	0.00000000
569.00000000	0.00005146
570.00000000	0.00000000
571.00000000	0.00000000
572.00000000	0.00000000
573.00000000	0.00000000
574.00000000	0.00012569
575.00000000	0.00050892
576.00000000	0.00241041
577.00000000	0.00297856
578.00000000	0.00127808
579.00000000	0.00024286
580.00000000	0.00066526
581.00000000	0.00066785
582.00000000	0.00219365
583.00000000	0.00139903
584.00000000	0.00307189
585.00000000	0.11002286
586.00000000	0.09162918
587.00000000	0.03452034
588.00000000	0.10279671
589.00000000	0.06776141
590.00000000	0.02515222
591.00000000	0.01226522
592.00000000	0.00373736
593.00000000	0.00277637
594.00000000	0.10359651
595.00000000	0.15985333
596.00000000	0.04875027
597.00000000	0.04585143
598.00000000	0.04846004
599.00000000	0.01501991
600.00000000	0.00651039
601.00000000	0.00255487
602.00000000	0.00709851
603.00000000	0.05044222
604.00000000	0.02541968
605.00000000	0.01080545
606.00000000	0.00639560
607.00000000	0.09981955
608.00000000	0.12377126
609.00000000	0.14569602
610.00000000	0.23687281
611.00000000	0.07873484
612.00000000	0.03746168
613.00000000	0.02936679
614.00000000	0.35061479
615.00000000	0.30982747
616.00000000	0.19173292
617.00000000	0.14665582
618.00000000	0.04804821
619.00000000	0.01923750
620.00000000	0.00730048
621.00000000	0.04194641
622.00000000	0.11185885
623.00000000	0.03948357
624.00000000	0.01889117
625.00000000	0.01023772
626.00000000	0.10692000
627.00000000	0.23332350
628.00000000	0.07704947
629.00000000	0.03838296
630.00000000	0.07037767
631.00000000	0.07354558
632.00000000	0.02755454
633.00000000	0.23463524
634.00000000	0.26097902
635.00000000	0.08665139
636.00000000	0.04501376
637.00000000	0.02562878
638.00000000	0.34351952
639.00000000	0.31673166
640.00000000	0.86185046
641.00000000	0.59967179
642.00000000	0.21806094
643.00000000	0.10627913
644.00000000	0.03638082
645.00000000	0.00792798
646.00000000	0.00321280
647.00000000	0.00178453
648.00000000	0.00103759
649.00000000	0.00368514
650.00000000	0.22408107
651.00000000	0.42194202
652.00000000	0.14796487
653.00000000	0.20687625
654.00000000	0.13833911
655.00000000	0.04417620
656.00000000	0.02058474
657.00000000	0.00717069
658.00000000	0.00228989
659.00000000	0.04947001
660.00000000	0.19988822
661.00000000	0.07928315
662.00000000	0.03571729
663.00000000	0.01781225
664.00000000	0.00486408
665.00000000	0.00206116
666.00000000	0.00244579
667.00000000	0.10982693
668.00000000	0.33707494
669.00000000	0.12705527
670.00000000	0.06044668
671.00000000	0.13043055
672.00000000	0.22709686
673.00000000	0.07443536
674.00000000	0.03709830
675.00000000	0.01655218
676.00000000	0.00452929
677.00000000	0.00075427
678.00000000	0.00060355
679.00000000	0.00000000
680.00000000	0.00000000
681.00000000	0.00000000
682.00000000	0.00045131
683.00000000	0.00044592
684.00000000	0.00018503
685.00000000	0.00000000
686.00000000	0.00025052
687.00000000	0.00000000
688.00000000	0.00000000
689.00000000	0.00000000
690.00000000	0.00012613
691.00000000	0.00154253
692.00000000	0.06966893
693.00000000	0.31269922
694.00000000	0.12622159
695.00000000	0.05809821
696.00000000	0.02942030
697.00000000	0.00895403
698.00000000	0.00299367
699.00000000	0.00164707
700.00000000	0.00127647
701.00000000	0.00436098
702.00000000	0.08221434
703.00000000	1.00000000
704.00000000	0.61583557
705.00000000	0.24137544
706.00000000	0.13197199
707.00000000	0.04927149
708.00000000	0.01184412
709.00000000	0.00471281
710.00000000	0.00145492
711.00000000	0.00000000
712.00000000	0.00000000
713.00000000	0.00000000
714.00000000	0.00000000
715.00000000	0.00000000
716.00000000	0.00090791
717.00000000	0.05664048
718.00000000	0.04783038
719.00000000	0.01748394
720.00000000	0.00913896
721.00000000	0.00384159
722.00000000	0.00200409
723.00000000	0.00414465
724.00000000	0.32930135
725.00000000	0.36422844
