#LICA Lamps Spectra Database
#Website 1: https://guaix.fis.ucm.es/lamps_spectra
#Website 2: http://carlostapia.es/lamparas/lamps.html
#Latest update: 2017/12/15
#Tester: Carlos Eugenio Tapia Ayuga
#Correct for Electrical Dark: Yes (JAZA2310)
#Correct for Detector Non-linearity: Yes (JAZA2310)
#Correct for Flux: Yes
#Start wavelength (nm): 300
#End wavelength (nm): 900
#Steps (nm):	1
#Locus: D65 sRGB Gamma 1 CIE1931
#XYZ coordinates: 0.2155	0.1786	0.0379
#xyY coordinates: 0.4989	0.4134	0.1786
#sRGB: 103	33	4
#CCT Lindbloom (K):	2255
#CCT McCamy (K):	2236
#CCT Hernández-Andrés (K):	2053
#Melatonin: 0.209
#Chlorophyll a: 0.500
#Chlorophyll b: 0.379
#Beta Carotene: 0.499
#Manufacturer: Unknown
#Luminance manufacturer: Unknown
#Other data: Madrid streetlamp at Paraninfo Universidad Complutense
#Begin Processed Spectral Data
W	S
475.000000	0.133662
476.000000	0.131088
477.000000	0.111405
478.000000	0.095712
479.000000	0.083095
480.000000	0.087777
481.000000	0.083413
482.000000	0.090104
483.000000	0.089839
484.000000	0.094625
485.000000	0.092393
486.000000	0.091466
487.000000	0.083315
488.000000	0.088704
489.000000	0.092017
490.000000	0.098430
491.000000	0.107263
492.000000	0.110776
493.000000	0.108838
494.000000	0.110801
495.000000	0.121118
496.000000	0.153702
497.000000	0.277126
498.000000	0.652439
499.000000	0.739944
500.000000	0.488171
501.000000	0.279162
502.000000	0.162273
503.000000	0.118389
504.000000	0.106819
505.000000	0.096257
506.000000	0.097297
507.000000	0.096603
508.000000	0.095801
509.000000	0.095417
510.000000	0.095757
511.000000	0.100017
512.000000	0.102631
513.000000	0.096390
514.000000	0.107040
515.000000	0.222114
516.000000	0.254849
517.000000	0.171349
518.000000	0.119011
519.000000	0.097276
520.000000	0.097279
521.000000	0.097520
522.000000	0.096837
523.000000	0.092766
524.000000	0.097513
525.000000	0.099116
526.000000	0.092136
527.000000	0.086663
528.000000	0.089561
529.000000	0.089790
530.000000	0.097386
531.000000	0.094267
532.000000	0.092283
533.000000	0.088672
534.000000	0.092182
535.000000	0.098947
536.000000	0.103452
537.000000	0.103649
538.000000	0.097916
539.000000	0.104163
540.000000	0.094750
541.000000	0.100823
542.000000	0.097950
543.000000	0.099083
544.000000	0.104812
545.000000	0.107669
546.000000	0.124577
547.000000	0.132457
548.000000	0.146432
549.000000	0.171342
550.000000	0.214901
551.000000	0.251269
552.000000	0.274915
553.000000	0.293147
554.000000	0.301860
555.000000	0.306312
556.000000	0.323863
557.000000	0.343180
558.000000	0.382603
559.000000	0.419077
560.000000	0.453608
561.000000	0.477033
562.000000	0.479314
563.000000	0.497992
564.000000	0.509615
565.000000	0.535679
566.000000	0.617552
567.000000	0.839167
568.000000	1.429472
569.000000	2.269782
570.000000	1.860722
571.000000	1.339893
572.000000	0.957022
573.000000	0.787283
574.000000	0.752382
575.000000	0.771710
576.000000	0.825802
577.000000	0.882411
578.000000	0.952095
579.000000	1.023609
580.000000	1.124262
581.000000	1.231312
582.000000	1.346798
583.000000	1.437104
584.000000	1.491780
585.000000	1.465673
586.000000	1.275010
587.000000	0.937651
588.000000	0.538689
589.000000	0.276696
590.000000	0.162310
591.000000	0.204299
592.000000	0.419863
593.000000	0.836657
594.000000	1.220444
595.000000	1.505927
596.000000	1.646609
597.000000	1.675817
598.000000	1.642353
599.000000	1.565485
600.000000	1.475395
601.000000	1.378963
602.000000	1.282722
603.000000	1.206971
604.000000	1.116975
605.000000	1.037272
606.000000	0.964846
607.000000	0.917640
608.000000	0.849693
609.000000	0.797237
610.000000	0.744471
611.000000	0.714865
612.000000	0.670527
613.000000	0.646235
614.000000	0.614186
615.000000	0.752674
616.000000	1.087585
617.000000	0.900964
618.000000	0.753850
619.000000	0.614664
620.000000	0.525999
621.000000	0.499020
622.000000	0.472525
623.000000	0.456151
624.000000	0.433808
625.000000	0.424711
626.000000	0.411325
627.000000	0.408345
628.000000	0.376470
629.000000	0.368256
630.000000	0.360231
631.000000	0.348075
632.000000	0.351305
633.000000	0.345830
634.000000	0.336584
635.000000	0.332593
636.000000	0.331904
637.000000	0.326583
638.000000	0.325594
639.000000	0.317451
640.000000	0.317430
641.000000	0.312224
642.000000	0.314122
643.000000	0.299139
644.000000	0.302856
645.000000	0.303815
646.000000	0.288681
647.000000	0.288043
648.000000	0.280809
649.000000	0.285124
650.000000	0.280246
651.000000	0.276126
652.000000	0.271464
653.000000	0.271362
654.000000	0.267822
655.000000	0.270343
656.000000	0.252669
657.000000	0.256884
658.000000	0.263453
659.000000	0.271439
660.000000	0.271681
661.000000	0.275873
662.000000	0.269895
663.000000	0.261946
664.000000	0.262437
665.000000	0.252126
666.000000	0.260877
667.000000	0.262231
668.000000	0.255592
669.000000	0.265274
670.000000	0.271913
671.000000	0.275726
672.000000	0.279085
673.000000	0.276245
674.000000	0.270800
675.000000	0.268782
676.000000	0.269813
677.000000	0.278108
678.000000	0.265920
679.000000	0.272328
680.000000	0.256140
681.000000	0.253542
682.000000	0.255867
683.000000	0.256731
684.000000	0.242372
685.000000	0.241365
686.000000	0.235319
687.000000	0.188824
688.000000	0.159841
689.000000	0.152276
690.000000	0.160578
691.000000	0.170594
692.000000	0.189346
693.000000	0.197815
694.000000	0.191588
695.000000	0.191504
696.000000	0.195535
697.000000	0.209710
698.000000	0.208365
699.000000	0.215526
700.000000	0.211801
701.000000	0.204070
702.000000	0.213765
703.000000	0.223237
704.000000	0.208227
705.000000	0.214147
706.000000	0.221139
707.000000	0.229330
708.000000	0.218062
709.000000	0.226408
710.000000	0.232598
711.000000	0.224784
712.000000	0.219364
713.000000	0.222768
714.000000	0.232065
715.000000	0.211620
716.000000	0.207833
717.000000	0.186591
718.000000	0.170782
719.000000	0.163523
720.000000	0.147858
721.000000	0.169890
722.000000	0.177673
723.000000	0.183198
724.000000	0.167181
725.000000	0.166416
