#LICA Lamps Spectra Database
#Website 1: https://guaix.fis.ucm.es/lamps_spectra
#Website 2: http://carlostapia.es/lamparas/lamps.html
#Latest update: 2017/06/28
#Tester: Carlos Eugenio Tapia Ayuga
#Correct for Electrical Dark: Yes (JAZA2310)
#Correct for Detector Non-linearity: Yes (JAZA2310)
#Correct for Flux: Yes
#Start wavelength (nm): 300
#End wavelength (nm): 900
#Steps (nm):	1
#Locus: D65 sRGB Gamma 1 CIE1931
#XYZ coordinates: 0.1728	0.1320	0.0160
#xyY coordinates: 0.5387	0.4114	01320
#sRGB: 89	21	0
#CCT Lindbloom (K):	1895
#CCT McCamy (K):	1882
#CCT Hernández-Andrés (K):	1538
#Melatonin: 0.122
#Chlorophyll a: 0.232
#Chlorophyll b: 0.350
#Beta Carotene: 0.233
#Manufacturer: Unknown
#Luminance manufacturer: Unknown
#Other data: Áger streetlamps.
#Begin Processed Spectral Data
W	S
475.000000	0.053382
476.000000	0.077847
477.000000	0.055563
478.000000	0.037507
479.000000	0.024630
480.000000	0.013626
481.000000	0.018698
482.000000	0.012488
483.000000	0.022137
484.000000	0.018145
485.000000	0.016990
486.000000	0.014678
487.000000	0.014072
488.000000	0.016908
489.000000	0.017580
490.000000	0.023177
491.000000	0.030196
492.000000	0.039063
493.000000	0.032712
494.000000	0.032437
495.000000	0.046213
496.000000	0.058387
497.000000	0.127334
498.000000	0.348900
499.000000	0.635646
500.000000	0.492431
501.000000	0.253831
502.000000	0.137279
503.000000	0.075960
504.000000	0.049171
505.000000	0.033453
506.000000	0.028686
507.000000	0.024895
508.000000	0.028711
509.000000	0.019273
510.000000	0.023153
511.000000	0.017745
512.000000	0.026660
513.000000	0.022012
514.000000	0.028828
515.000000	0.070197
516.000000	0.190990
517.000000	0.115056
518.000000	0.057057
519.000000	0.037975
520.000000	0.028927
521.000000	0.024151
522.000000	0.021458
523.000000	0.023823
524.000000	0.019703
525.000000	0.020277
526.000000	0.025594
527.000000	0.026960
528.000000	0.024546
529.000000	0.022237
530.000000	0.022665
531.000000	0.030236
532.000000	0.026429
533.000000	0.025380
534.000000	0.031682
535.000000	0.029781
536.000000	0.028206
537.000000	0.029166
538.000000	0.030654
539.000000	0.031655
540.000000	0.031599
541.000000	0.031005
542.000000	0.031761
543.000000	0.031643
544.000000	0.034377
545.000000	0.039730
546.000000	0.057462
547.000000	0.071245
548.000000	0.068000
549.000000	0.091653
550.000000	0.116286
551.000000	0.158555
552.000000	0.171206
553.000000	0.188634
554.000000	0.208293
555.000000	0.208822
556.000000	0.234764
557.000000	0.271320
558.000000	0.310952
559.000000	0.394304
560.000000	0.455235
561.000000	0.491274
562.000000	0.510682
563.000000	0.524683
564.000000	0.526037
565.000000	0.546159
566.000000	0.601220
567.000000	0.780054
568.000000	1.199686
569.000000	2.417287
570.000000	2.582870
571.000000	1.540767
572.000000	1.085750
573.000000	0.857289
574.000000	0.757999
575.000000	0.746733
576.000000	0.786437
577.000000	0.833094
578.000000	0.901561
579.000000	0.978891
580.000000	1.103429
581.000000	1.204323
582.000000	1.329640
583.000000	1.481150
584.000000	1.619400
585.000000	1.723538
586.000000	1.664089
587.000000	1.246012
588.000000	0.630246
589.000000	0.264403
590.000000	0.122134
591.000000	0.079980
592.000000	0.142481
593.000000	0.441342
594.000000	0.871225
595.000000	1.263111
596.000000	1.555082
597.000000	1.666551
598.000000	1.714153
599.000000	1.747993
600.000000	1.685155
601.000000	1.647126
602.000000	1.596614
603.000000	1.540815
604.000000	1.467026
605.000000	1.379804
606.000000	1.326890
607.000000	1.242389
608.000000	1.164059
609.000000	1.104501
610.000000	1.047426
611.000000	0.999429
612.000000	0.957611
613.000000	0.915465
614.000000	0.897925
615.000000	0.917323
616.000000	1.240354
617.000000	1.288095
618.000000	0.941293
619.000000	0.821321
620.000000	0.742552
621.000000	0.686759
622.000000	0.653654
623.000000	0.636803
624.000000	0.600448
625.000000	0.579711
626.000000	0.576120
627.000000	0.550920
628.000000	0.539908
629.000000	0.521931
630.000000	0.503169
631.000000	0.493132
632.000000	0.492817
633.000000	0.459441
634.000000	0.467627
635.000000	0.450166
636.000000	0.445439
637.000000	0.413957
638.000000	0.406831
639.000000	0.413324
640.000000	0.397636
641.000000	0.396948
642.000000	0.392739
643.000000	0.380567
644.000000	0.361518
645.000000	0.354631
646.000000	0.353070
647.000000	0.352004
648.000000	0.344900
649.000000	0.338860
650.000000	0.333481
651.000000	0.312053
652.000000	0.296313
653.000000	0.301315
654.000000	0.309977
655.000000	0.292968
656.000000	0.291699
657.000000	0.293568
658.000000	0.314014
659.000000	0.288592
660.000000	0.287030
661.000000	0.266501
662.000000	0.270359
663.000000	0.255406
664.000000	0.247479
665.000000	0.247304
666.000000	0.263061
667.000000	0.265914
668.000000	0.268623
669.000000	0.279123
670.000000	0.283527
671.000000	0.294263
672.000000	0.279690
673.000000	0.283864
674.000000	0.295873
675.000000	0.267985
676.000000	0.285215
677.000000	0.258207
678.000000	0.251121
679.000000	0.236367
680.000000	0.210441
681.000000	0.203158
682.000000	0.192377
683.000000	0.175042
684.000000	0.170886
685.000000	0.173013
686.000000	0.160275
687.000000	0.163585
688.000000	0.133443
689.000000	0.143793
690.000000	0.125538
691.000000	0.126392
692.000000	0.142750
693.000000	0.123238
694.000000	0.128770
695.000000	0.119481
696.000000	0.129126
697.000000	0.114301
698.000000	0.089294
699.000000	0.108103
700.000000	0.112743
701.000000	0.111958
702.000000	0.107110
703.000000	0.100947
704.000000	0.110827
705.000000	0.097618
706.000000	0.090140
707.000000	0.088497
708.000000	0.078794
709.000000	0.101005
710.000000	0.101204
711.000000	0.112100
712.000000	0.097612
713.000000	0.096820
714.000000	0.093735
715.000000	0.078058
716.000000	0.080764
717.000000	0.099712
718.000000	0.088938
719.000000	0.081524
720.000000	0.092877
721.000000	0.096116
722.000000	0.082012
723.000000	0.085498
724.000000	0.064190
725.000000	0.085965
