#LICA Lamps Spectra Database
#Website 1: https://guaix.fis.ucm.es/lamps_spectra
#Website 2: http://carlostapia.es/lamparas/lamps.html
#Latest update: 2017/12/15
#Tester: Carlos Eugenio Tapia Ayuga
#Correct for Electrical Dark: Yes (JAZA2310)
#Correct for Detector Non-linearity: Yes (JAZA2310)
#Correct for Flux: Yes
#Start wavelength (nm): 300
#End wavelength (nm): 900
#Steps (nm):	1
#Locus: D65 sRGB Gamma 1 CIE1931
#XYZ coordinates: 0.1610	0.1279	0.0122
#xyY coordinates: 0.5347	0.4248	0.1279
#sRGB: 81	22	0
#CCT Lindbloom (K):	2005
#CCT McCamy (K):	1995
#CCT Hernández-Andrés (K):	1709
#Melatonin: 0.105
#Chlorophyll a: 0.175
#Chlorophyll b: 0.296
#Beta Carotene: 0.177
#Manufacturer: Unknown
#Luminance manufacturer: Unknown
#Other data: Madrid streetlamp at Facultad de Físicas
#Begin Processed Spectral Data
W	S
475.000000	0.058814
476.000000	0.068169
477.000000	0.038417
478.000000	0.024700
479.000000	0.013625
480.000000	0.014307
481.000000	0.011448
482.000000	0.011816
483.000000	0.013506
484.000000	0.010650
485.000000	0.016300
486.000000	0.012950
487.000000	0.016205
488.000000	0.014174
489.000000	0.017400
490.000000	0.019406
491.000000	0.026518
492.000000	0.030683
493.000000	0.031663
494.000000	0.029994
495.000000	0.039192
496.000000	0.073004
497.000000	0.197248
498.000000	0.570213
499.000000	0.743066
500.000000	0.465297
501.000000	0.205675
502.000000	0.090225
503.000000	0.047382
504.000000	0.033790
505.000000	0.028810
506.000000	0.024966
507.000000	0.022122
508.000000	0.023825
509.000000	0.021126
510.000000	0.022409
511.000000	0.021470
512.000000	0.022792
513.000000	0.022834
514.000000	0.029503
515.000000	0.132921
516.000000	0.195650
517.000000	0.106542
518.000000	0.043113
519.000000	0.028378
520.000000	0.020431
521.000000	0.020892
522.000000	0.018913
523.000000	0.019751
524.000000	0.019573
525.000000	0.023021
526.000000	0.019837
527.000000	0.020913
528.000000	0.021451
529.000000	0.022366
530.000000	0.023682
531.000000	0.022088
532.000000	0.019437
533.000000	0.023187
534.000000	0.025051
535.000000	0.024590
536.000000	0.026561
537.000000	0.025221
538.000000	0.026197
539.000000	0.025265
540.000000	0.027399
541.000000	0.028912
542.000000	0.033088
543.000000	0.030213
544.000000	0.034939
545.000000	0.040575
546.000000	0.049633
547.000000	0.059590
548.000000	0.067583
549.000000	0.086322
550.000000	0.119729
551.000000	0.151750
552.000000	0.183042
553.000000	0.201326
554.000000	0.215578
555.000000	0.226888
556.000000	0.262528
557.000000	0.324679
558.000000	0.402322
559.000000	0.492361
560.000000	0.561244
561.000000	0.600531
562.000000	0.622482
563.000000	0.613544
564.000000	0.612652
565.000000	0.626470
566.000000	0.692616
567.000000	0.900733
568.000000	1.620426
569.000000	2.928271
570.000000	2.477992
571.000000	1.591204
572.000000	1.046188
573.000000	0.848148
574.000000	0.814572
575.000000	0.832079
576.000000	0.887629
577.000000	0.955268
578.000000	1.038891
579.000000	1.131666
580.000000	1.252483
581.000000	1.397119
582.000000	1.575011
583.000000	1.768471
584.000000	1.952774
585.000000	2.122775
586.000000	2.079675
587.000000	1.582372
588.000000	0.805396
589.000000	0.312019
590.000000	0.123282
591.000000	0.136317
592.000000	0.461392
593.000000	1.149079
594.000000	1.763620
595.000000	2.101732
596.000000	2.180137
597.000000	2.111435
598.000000	2.024037
599.000000	1.901078
600.000000	1.763629
601.000000	1.630662
602.000000	1.521455
603.000000	1.416869
604.000000	1.308191
605.000000	1.208890
606.000000	1.141391
607.000000	1.066906
608.000000	0.986184
609.000000	0.929007
610.000000	0.869024
611.000000	0.822852
612.000000	0.780959
613.000000	0.746653
614.000000	0.715173
615.000000	0.819600
616.000000	1.237764
617.000000	1.134739
618.000000	0.862039
619.000000	0.671508
620.000000	0.586919
621.000000	0.535064
622.000000	0.517036
623.000000	0.487155
624.000000	0.478622
625.000000	0.456078
626.000000	0.441400
627.000000	0.428858
628.000000	0.418063
629.000000	0.394496
630.000000	0.388048
631.000000	0.380035
632.000000	0.363582
633.000000	0.351260
634.000000	0.350426
635.000000	0.337999
636.000000	0.330295
637.000000	0.319297
638.000000	0.315750
639.000000	0.302980
640.000000	0.300515
641.000000	0.287325
642.000000	0.289374
643.000000	0.276881
644.000000	0.268687
645.000000	0.262981
646.000000	0.264869
647.000000	0.257756
648.000000	0.244072
649.000000	0.244335
650.000000	0.250476
651.000000	0.234485
652.000000	0.222598
653.000000	0.222760
654.000000	0.215509
655.000000	0.218474
656.000000	0.220981
657.000000	0.214598
658.000000	0.210541
659.000000	0.209929
660.000000	0.196940
661.000000	0.202468
662.000000	0.184161
663.000000	0.184289
664.000000	0.183915
665.000000	0.182068
666.000000	0.177553
667.000000	0.188183
668.000000	0.187300
669.000000	0.181625
670.000000	0.183947
671.000000	0.184192
672.000000	0.188867
673.000000	0.181214
674.000000	0.181401
675.000000	0.174101
676.000000	0.171252
677.000000	0.176089
678.000000	0.165331
679.000000	0.155625
680.000000	0.156182
681.000000	0.141454
682.000000	0.139294
683.000000	0.128554
684.000000	0.124665
685.000000	0.122928
686.000000	0.112239
687.000000	0.121135
688.000000	0.115145
689.000000	0.101823
690.000000	0.111689
691.000000	0.114650
692.000000	0.101789
693.000000	0.100651
694.000000	0.097966
695.000000	0.094544
696.000000	0.098351
697.000000	0.094812
698.000000	0.093628
699.000000	0.100588
700.000000	0.099048
701.000000	0.090867
702.000000	0.086626
703.000000	0.080453
704.000000	0.087412
705.000000	0.091952
706.000000	0.084032
707.000000	0.086533
708.000000	0.085075
709.000000	0.083805
710.000000	0.082848
711.000000	0.077896
712.000000	0.077018
713.000000	0.076679
714.000000	0.070193
715.000000	0.070964
716.000000	0.079500
717.000000	0.073828
718.000000	0.075406
719.000000	0.070194
720.000000	0.070910
721.000000	0.074333
722.000000	0.073610
723.000000	0.065778
724.000000	0.062733
725.000000	0.066219
