#LICA Lamps Spectra Database
#Website 1: https://guaix.fis.ucm.es/lamps_spectra
#Website 2: http://carlostapia.es/lamparas/lamps.html
#Latest update: 2017/12/15
#Tester: Carlos Eugenio Tapia Ayuga
#Correct for Electrical Dark: Yes (JAZA2310)
#Correct for Detector Non-linearity: Yes (JAZA2310)
#Correct for Flux: Yes
#Start wavelength (nm): 300
#End wavelength (nm): 900
#Steps (nm):	1
#Locus: D65 sRGB Gamma 1 CIE1931
#XYZ coordinates: 0.1583	0.1220	0.0141
#xyY coordinates: 0.5378	0.4143	0.1220
#sRGB: 81	19	0
#CCT Lindbloom (K):	1920
#CCT McCamy (K):	1906
#CCT Hernández-Andrés (K):	1576
#Melatonin: 0.116
#Chlorophyll a: 0.115
#Chlorophyll b: 0.311
#Beta Carotene: 0.117
#Manufacturer: Unknown
#Luminance manufacturer: Unknown
#Other data:
#Begin Processed Spectral Data
W	S
475.000000	0.074647
476.000000	0.076546
477.000000	0.037122
478.000000	0.021196
479.000000	0.010422
480.000000	0.007260
481.000000	0.007139
482.000000	0.011017
483.000000	0.006571
484.000000	0.009144
485.000000	0.010539
486.000000	0.009226
487.000000	0.010799
488.000000	0.011546
489.000000	0.015159
490.000000	0.019867
491.000000	0.030901
492.000000	0.033455
493.000000	0.029521
494.000000	0.034042
495.000000	0.046919
496.000000	0.097373
497.000000	0.250548
498.000000	0.678456
499.000000	0.814277
500.000000	0.449225
501.000000	0.222170
502.000000	0.108945
503.000000	0.058034
504.000000	0.035631
505.000000	0.027456
506.000000	0.019251
507.000000	0.018365
508.000000	0.016642
509.000000	0.013655
510.000000	0.016608
511.000000	0.014885
512.000000	0.015454
513.000000	0.016724
514.000000	0.027509
515.000000	0.153560
516.000000	0.208246
517.000000	0.080358
518.000000	0.042105
519.000000	0.020831
520.000000	0.013772
521.000000	0.012436
522.000000	0.012683
523.000000	0.014405
524.000000	0.012348
525.000000	0.010957
526.000000	0.010515
527.000000	0.015374
528.000000	0.013206
529.000000	0.013488
530.000000	0.014575
531.000000	0.011708
532.000000	0.012727
533.000000	0.015896
534.000000	0.015604
535.000000	0.015050
536.000000	0.014103
537.000000	0.016560
538.000000	0.015061
539.000000	0.017208
540.000000	0.014020
541.000000	0.015760
542.000000	0.017090
543.000000	0.020650
544.000000	0.020876
545.000000	0.025716
546.000000	0.079577
547.000000	0.071807
548.000000	0.049350
549.000000	0.054871
550.000000	0.066068
551.000000	0.086543
552.000000	0.101095
553.000000	0.115804
554.000000	0.127566
555.000000	0.134329
556.000000	0.166491
557.000000	0.210984
558.000000	0.272686
559.000000	0.343749
560.000000	0.401642
561.000000	0.429515
562.000000	0.442880
563.000000	0.442202
564.000000	0.448138
565.000000	0.480156
566.000000	0.584606
567.000000	0.886936
568.000000	1.839839
569.000000	3.610243
570.000000	2.618381
571.000000	1.425220
572.000000	0.959602
573.000000	0.700281
574.000000	0.598983
575.000000	0.584640
576.000000	0.608481
577.000000	0.648572
578.000000	0.702497
579.000000	0.776916
580.000000	0.872056
581.000000	0.986773
582.000000	1.147574
583.000000	1.339197
584.000000	1.607536
585.000000	1.987877
586.000000	2.454515
587.000000	2.752773
588.000000	1.934997
589.000000	0.775656
590.000000	0.396248
591.000000	0.543840
592.000000	1.460611
593.000000	2.358543
594.000000	2.670719
595.000000	2.680538
596.000000	2.545145
597.000000	2.329578
598.000000	2.141726
599.000000	1.962965
600.000000	1.810901
601.000000	1.658043
602.000000	1.512416
603.000000	1.402578
604.000000	1.293795
605.000000	1.188074
606.000000	1.112210
607.000000	1.026155
608.000000	0.953877
609.000000	0.893491
610.000000	0.833813
611.000000	0.791926
612.000000	0.736744
613.000000	0.699338
614.000000	0.671553
615.000000	0.807675
616.000000	1.324361
617.000000	1.135863
618.000000	0.749209
619.000000	0.634634
620.000000	0.540082
621.000000	0.495219
622.000000	0.469094
623.000000	0.446445
624.000000	0.430168
625.000000	0.412605
626.000000	0.404532
627.000000	0.390701
628.000000	0.376741
629.000000	0.368134
630.000000	0.350284
631.000000	0.350290
632.000000	0.330354
633.000000	0.323139
634.000000	0.309034
635.000000	0.308472
636.000000	0.300845
637.000000	0.292688
638.000000	0.290982
639.000000	0.282767
640.000000	0.263880
641.000000	0.264666
642.000000	0.256823
643.000000	0.258206
644.000000	0.243673
645.000000	0.241795
646.000000	0.241764
647.000000	0.233695
648.000000	0.230555
649.000000	0.217676
650.000000	0.208407
651.000000	0.206993
652.000000	0.201722
653.000000	0.197314
654.000000	0.198761
655.000000	0.203513
656.000000	0.200553
657.000000	0.198312
658.000000	0.191357
659.000000	0.193373
660.000000	0.189162
661.000000	0.176314
662.000000	0.170679
663.000000	0.157491
664.000000	0.158961
665.000000	0.163802
666.000000	0.161403
667.000000	0.170310
668.000000	0.168907
669.000000	0.172758
670.000000	0.182903
671.000000	0.185404
672.000000	0.183770
673.000000	0.181739
674.000000	0.179323
675.000000	0.168391
676.000000	0.172969
677.000000	0.167276
678.000000	0.154966
679.000000	0.138828
680.000000	0.137581
681.000000	0.129119
682.000000	0.124950
683.000000	0.112373
684.000000	0.102581
685.000000	0.096474
686.000000	0.096006
687.000000	0.094693
688.000000	0.087976
689.000000	0.083589
690.000000	0.077535
691.000000	0.074908
692.000000	0.069309
693.000000	0.066716
694.000000	0.069632
695.000000	0.076539
696.000000	0.071330
697.000000	0.070226
698.000000	0.062698
699.000000	0.067004
700.000000	0.067277
701.000000	0.055667
702.000000	0.062740
703.000000	0.049824
704.000000	0.059388
705.000000	0.056870
706.000000	0.055937
707.000000	0.061680
708.000000	0.052157
709.000000	0.060842
710.000000	0.057825
711.000000	0.052340
712.000000	0.059953
713.000000	0.048096
714.000000	0.055419
715.000000	0.052745
716.000000	0.054289
717.000000	0.057167
718.000000	0.053074
719.000000	0.054304
720.000000	0.044474
721.000000	0.036533
722.000000	0.044651
723.000000	0.046274
724.000000	0.045174
725.000000	0.046219
