#LICA Lamps Spectra Database
#Website 1: https://guaix.fis.ucm.es/lamps_spectra
#Website 2: http://carlostapia.es/lamparas/lamps.html
#Latest update: 2017/02/07
#Tester: Carlos Eugenio Tapia Ayuga
#Correct for Electrical Dark: Yes (JAZA2310)
#Correct for Detector Non-linearity: Yes (JAZA2310)
#Correct for Flux: Yes
#Start wavelength (nm): 300
#End wavelength (nm): 900
#Steps (nm):	1
#Locus: D65 sRGB Gamma 1 CIE1931
#XYZ coordinates: 0.4022	0.3634	0.1264
#xyY coordinates: 0.4508	0.4074	0.3634
#sRGB: 174	76	21
#CCT Lindbloom (K):	2805
#CCT McCamy (K):	2806
#CCT Hernández-Andrés (K):	2734
#Melatonin: 0.363
#Chlorophyll a: 3.288
#Chlorophyll b: 0.582
#Beta Carotene: 3.274
#Manufacturer: Philips
#Luminance manufacturer: Unknown
#Other data: 40W
#Begin Processed Spectral Data
W	S
475.000000	0.135918
476.000000	0.137481
477.000000	0.139434
478.000000	0.139775
479.000000	0.142322
480.000000	0.142709
481.000000	0.145014
482.000000	0.146847
483.000000	0.149228
484.000000	0.149728
485.000000	0.151979
486.000000	0.154694
487.000000	0.156157
488.000000	0.157000
489.000000	0.158557
490.000000	0.160684
491.000000	0.161899
492.000000	0.163183
493.000000	0.165985
494.000000	0.167941
495.000000	0.169253
496.000000	0.171791
497.000000	0.174023
498.000000	0.174750
499.000000	0.176832
500.000000	0.178727
501.000000	0.181192
502.000000	0.183289
503.000000	0.185585
504.000000	0.186536
505.000000	0.187622
506.000000	0.189376
507.000000	0.192727
508.000000	0.193761
509.000000	0.195322
510.000000	0.198370
511.000000	0.201776
512.000000	0.203874
513.000000	0.203943
514.000000	0.206269
515.000000	0.209747
516.000000	0.211632
517.000000	0.212426
518.000000	0.213902
519.000000	0.215404
520.000000	0.217433
521.000000	0.219241
522.000000	0.221851
523.000000	0.224685
524.000000	0.227345
525.000000	0.228565
526.000000	0.231617
527.000000	0.233165
528.000000	0.235970
529.000000	0.238191
530.000000	0.238767
531.000000	0.240758
532.000000	0.242723
533.000000	0.244057
534.000000	0.246899
535.000000	0.246627
536.000000	0.250910
537.000000	0.250956
538.000000	0.254153
539.000000	0.257415
540.000000	0.259043
541.000000	0.261741
542.000000	0.262181
543.000000	0.267026
544.000000	0.268425
545.000000	0.270317
546.000000	0.272267
547.000000	0.275506
548.000000	0.276964
549.000000	0.276444
550.000000	0.281255
551.000000	0.283930
552.000000	0.283632
553.000000	0.286680
554.000000	0.291111
555.000000	0.293377
556.000000	0.297760
557.000000	0.300319
558.000000	0.303121
559.000000	0.304379
560.000000	0.306187
561.000000	0.310662
562.000000	0.311913
563.000000	0.313966
564.000000	0.314633
565.000000	0.318756
566.000000	0.321904
567.000000	0.325584
568.000000	0.327231
569.000000	0.326963
570.000000	0.326824
571.000000	0.329339
572.000000	0.332063
573.000000	0.334109
574.000000	0.336335
575.000000	0.338466
576.000000	0.340336
577.000000	0.340812
578.000000	0.341849
579.000000	0.345798
580.000000	0.349250
581.000000	0.354155
582.000000	0.355404
583.000000	0.356852
584.000000	0.357301
585.000000	0.363198
586.000000	0.366761
587.000000	0.369631
588.000000	0.370999
589.000000	0.372732
590.000000	0.375737
591.000000	0.376569
592.000000	0.377894
593.000000	0.382742
594.000000	0.382693
595.000000	0.385180
596.000000	0.386954
597.000000	0.388143
598.000000	0.393838
599.000000	0.395124
600.000000	0.398508
601.000000	0.402446
602.000000	0.404549
603.000000	0.406929
604.000000	0.409603
605.000000	0.410077
606.000000	0.409815
607.000000	0.410378
608.000000	0.411065
609.000000	0.413305
610.000000	0.415800
611.000000	0.420001
612.000000	0.420620
613.000000	0.421878
614.000000	0.423897
615.000000	0.431016
616.000000	0.437768
617.000000	0.443473
618.000000	0.447561
619.000000	0.450419
620.000000	0.451138
621.000000	0.451112
622.000000	0.452460
623.000000	0.456672
624.000000	0.459649
625.000000	0.461121
626.000000	0.462888
627.000000	0.465873
628.000000	0.470807
629.000000	0.471258
630.000000	0.470017
631.000000	0.471927
632.000000	0.470359
633.000000	0.477958
634.000000	0.482418
635.000000	0.483280
636.000000	0.481434
637.000000	0.487554
638.000000	0.487572
639.000000	0.488497
640.000000	0.487348
641.000000	0.496749
642.000000	0.499126
643.000000	0.495984
644.000000	0.498088
645.000000	0.501867
646.000000	0.504927
647.000000	0.508079
648.000000	0.510480
649.000000	0.513841
650.000000	0.515685
651.000000	0.516794
652.000000	0.515321
653.000000	0.515216
654.000000	0.520816
655.000000	0.522387
656.000000	0.528383
657.000000	0.527438
658.000000	0.530197
659.000000	0.536087
660.000000	0.533614
661.000000	0.535151
662.000000	0.537114
663.000000	0.541524
664.000000	0.540693
665.000000	0.545895
666.000000	0.540797
667.000000	0.548729
668.000000	0.549916
669.000000	0.555795
670.000000	0.558316
671.000000	0.561093
672.000000	0.566589
673.000000	0.567905
674.000000	0.565598
675.000000	0.567862
676.000000	0.569743
677.000000	0.574919
678.000000	0.573440
679.000000	0.575379
680.000000	0.577433
681.000000	0.581856
682.000000	0.584587
683.000000	0.587716
684.000000	0.585736
685.000000	0.588668
686.000000	0.588196
687.000000	0.588801
688.000000	0.592506
689.000000	0.592105
690.000000	0.598511
691.000000	0.599397
692.000000	0.609108
693.000000	0.608564
694.000000	0.611192
695.000000	0.614404
696.000000	0.617097
697.000000	0.613790
698.000000	0.618164
699.000000	0.621401
700.000000	0.627553
701.000000	0.637061
702.000000	0.633105
703.000000	0.634452
704.000000	0.639662
705.000000	0.641205
706.000000	0.635596
707.000000	0.638890
708.000000	0.646750
709.000000	0.644484
710.000000	0.646862
711.000000	0.653603
712.000000	0.657277
713.000000	0.656784
714.000000	0.661388
715.000000	0.664082
716.000000	0.662965
717.000000	0.664811
718.000000	0.669338
719.000000	0.672125
720.000000	0.673760
721.000000	0.678156
722.000000	0.681733
723.000000	0.678656
724.000000	0.681387
725.000000	0.685405
