#LICA Lamps Spectra Database
#Website 1: https://guaix.fis.ucm.es/lamps_spectra
#Website 2: http://carlostapia.es/lamparas/lamps.html
#Latest update: 2018/04/28
#Tester: Carlos Eugenio Tapia Ayuga
#Correct for Electrical Dark: Yes (JAZA2310)
#Correct for Detector Non-linearity: Yes (JAZA2310)
#Correct for Flux: Yes
#Start wavelength (nm): 300
#End wavelength (nm): 900
#Steps (nm):	1
#Locus: D65 sRGB Gamma 1 CIE1931
#XYZ coordinates: 0.7774	0.6975	0.2047
#xyY coordinates: 0.4629	0.4153	0.6975
#sRGB: 255	107	22
#CCT Lindbloom (K):	2695
#CCT McCamy (K):	2692
#CCT Hernández-Andrés (K):	2600
#Melatonin: 0.272
#Chlorophyll a: 0.308
#Chlorophyll b: 0.546
#Beta Carotene: 0.308
#Manufacturer: Radium
#Luminance manufacturer: 470 lm
#Other data: RL-D 2700K.
#Begin Processed Spectral Data
W	S
475.000000	0.090260
476.000000	0.086877
477.000000	0.086739
478.000000	0.084436
479.000000	0.085074
480.000000	0.085746
481.000000	0.087807
482.000000	0.088363
483.000000	0.090533
484.000000	0.091904
485.000000	0.094973
486.000000	0.098221
487.000000	0.100024
488.000000	0.102806
489.000000	0.106531
490.000000	0.110439
491.000000	0.114852
492.000000	0.119101
493.000000	0.123985
494.000000	0.130655
495.000000	0.135883
496.000000	0.143007
497.000000	0.150547
498.000000	0.156581
499.000000	0.163027
500.000000	0.169900
501.000000	0.177524
502.000000	0.184865
503.000000	0.192649
504.000000	0.198978
505.000000	0.206540
506.000000	0.213132
507.000000	0.220480
508.000000	0.226668
509.000000	0.234482
510.000000	0.242325
511.000000	0.250454
512.000000	0.257667
513.000000	0.262093
514.000000	0.269357
515.000000	0.276030
516.000000	0.280790
517.000000	0.285260
518.000000	0.290988
519.000000	0.296049
520.000000	0.300462
521.000000	0.304591
522.000000	0.309796
523.000000	0.315080
524.000000	0.322044
525.000000	0.324036
526.000000	0.329045
527.000000	0.333320
528.000000	0.338144
529.000000	0.342648
530.000000	0.345783
531.000000	0.349045
532.000000	0.352344
533.000000	0.354428
534.000000	0.357077
535.000000	0.362930
536.000000	0.364644
537.000000	0.368356
538.000000	0.372460
539.000000	0.375498
540.000000	0.378933
541.000000	0.385097
542.000000	0.387850
543.000000	0.392681
544.000000	0.394281
545.000000	0.398357
546.000000	0.400272
547.000000	0.405650
548.000000	0.409102
549.000000	0.412090
550.000000	0.415913
551.000000	0.421756
552.000000	0.425137
553.000000	0.430111
554.000000	0.434237
555.000000	0.437564
556.000000	0.443311
557.000000	0.449340
558.000000	0.453393
559.000000	0.457915
560.000000	0.461908
561.000000	0.466943
562.000000	0.469521
563.000000	0.474177
564.000000	0.478551
565.000000	0.482914
566.000000	0.490949
567.000000	0.495865
568.000000	0.502114
569.000000	0.507471
570.000000	0.512597
571.000000	0.517080
572.000000	0.524365
573.000000	0.529636
574.000000	0.534174
575.000000	0.539588
576.000000	0.545066
577.000000	0.552402
578.000000	0.558336
579.000000	0.562695
580.000000	0.568565
581.000000	0.573506
582.000000	0.580880
583.000000	0.589133
584.000000	0.597417
585.000000	0.603995
586.000000	0.609708
587.000000	0.614130
588.000000	0.619033
589.000000	0.621387
590.000000	0.628883
591.000000	0.632966
592.000000	0.637016
593.000000	0.643600
594.000000	0.646170
595.000000	0.650303
596.000000	0.654308
597.000000	0.656959
598.000000	0.663406
599.000000	0.668355
600.000000	0.673120
601.000000	0.676308
602.000000	0.681865
603.000000	0.687066
604.000000	0.686998
605.000000	0.685723
606.000000	0.688193
607.000000	0.685624
608.000000	0.685641
609.000000	0.685553
610.000000	0.685738
611.000000	0.687594
612.000000	0.684011
613.000000	0.684131
614.000000	0.685534
615.000000	0.690876
616.000000	0.691850
617.000000	0.694587
618.000000	0.699166
619.000000	0.699362
620.000000	0.701063
621.000000	0.696307
622.000000	0.695363
623.000000	0.695923
624.000000	0.694700
625.000000	0.696192
626.000000	0.694985
627.000000	0.693787
628.000000	0.694096
629.000000	0.690878
630.000000	0.686408
631.000000	0.683678
632.000000	0.679313
633.000000	0.677026
634.000000	0.674374
635.000000	0.667636
636.000000	0.663030
637.000000	0.657137
638.000000	0.651894
639.000000	0.644333
640.000000	0.636934
641.000000	0.632413
642.000000	0.625544
643.000000	0.616253
644.000000	0.609873
645.000000	0.600533
646.000000	0.593247
647.000000	0.584756
648.000000	0.577036
649.000000	0.573245
650.000000	0.559905
651.000000	0.551295
652.000000	0.541465
653.000000	0.532177
654.000000	0.523257
655.000000	0.513189
656.000000	0.503012
657.000000	0.494257
658.000000	0.485417
659.000000	0.477544
660.000000	0.468048
661.000000	0.460692
662.000000	0.453015
663.000000	0.443206
664.000000	0.431343
665.000000	0.424970
666.000000	0.415241
667.000000	0.408177
668.000000	0.397596
669.000000	0.392093
670.000000	0.383580
671.000000	0.375964
672.000000	0.368812
673.000000	0.362183
674.000000	0.350214
675.000000	0.343713
676.000000	0.336879
677.000000	0.330892
678.000000	0.321817
679.000000	0.313192
680.000000	0.307310
681.000000	0.299459
682.000000	0.291514
683.000000	0.284976
684.000000	0.278873
685.000000	0.272977
686.000000	0.266196
687.000000	0.259721
688.000000	0.250774
689.000000	0.244938
690.000000	0.239087
691.000000	0.234379
692.000000	0.230077
693.000000	0.223739
694.000000	0.216812
695.000000	0.211411
696.000000	0.206843
697.000000	0.199790
698.000000	0.194440
699.000000	0.191403
700.000000	0.186739
701.000000	0.183030
702.000000	0.177071
703.000000	0.173329
704.000000	0.168212
705.000000	0.162868
706.000000	0.157961
707.000000	0.153685
708.000000	0.149310
709.000000	0.145451
710.000000	0.142453
711.000000	0.137879
712.000000	0.135316
713.000000	0.130232
714.000000	0.125708
715.000000	0.123278
716.000000	0.119166
717.000000	0.116437
718.000000	0.113707
719.000000	0.109638
720.000000	0.108107
721.000000	0.104689
722.000000	0.100987
723.000000	0.098826
724.000000	0.095066
725.000000	0.091649
