#LICA Lamps Spectra Database
#Website 1: https://guaix.fis.ucm.es/lamps_spectra
#Website 2: http://carlostapia.es/lamparas/lamps.html
#Latest update: 2017/12/17
#Tester: Carlos Eugenio Tapia Ayuga
#Correct for Electrical Dark: Yes (JAZA2310)
#Correct for Detector Non-linearity: Yes (JAZA2310)
#Correct for Flux: Yes
#Start wavelength (nm): 300
#End wavelength (nm): 900
#Steps (nm):	1
#Locus: D65 sRGB Gamma 1 CIE1931
#XYZ coordinates: 0.7627	0.6831	0.2431
#xyY coordinates: 0.4516	0.4045	0.6831
#sRGB: 255	108	31
#CCT Lindbloom (K):	2771
#CCT McCamy (K):	2770
#CCT Hernández-Andrés (K):	2696
#Melatonin: 0.306
#Chlorophyll a: 0.208
#Chlorophyll b: 0.574
#Beta Carotene: 0.209
#Manufacturer: Philips
#Luminance manufacturer: 470lm
#Other data: Manufacturer 2700K. 5.5W
#Begin Processed Spectral Data
W	S
475.000000	0.108367
476.000000	0.103436
477.000000	0.101908
478.000000	0.099498
479.000000	0.099399
480.000000	0.099146
481.000000	0.100256
482.000000	0.099493
483.000000	0.103091
484.000000	0.102839
485.000000	0.107288
486.000000	0.109904
487.000000	0.112799
488.000000	0.117281
489.000000	0.118886
490.000000	0.123878
491.000000	0.127272
492.000000	0.135778
493.000000	0.140880
494.000000	0.148815
495.000000	0.155485
496.000000	0.159840
497.000000	0.169022
498.000000	0.174296
499.000000	0.179422
500.000000	0.187640
501.000000	0.198902
502.000000	0.207061
503.000000	0.214576
504.000000	0.219306
505.000000	0.226056
506.000000	0.232815
507.000000	0.241112
508.000000	0.248132
509.000000	0.253244
510.000000	0.260464
511.000000	0.271343
512.000000	0.277822
513.000000	0.278701
514.000000	0.288188
515.000000	0.295186
516.000000	0.301443
517.000000	0.305128
518.000000	0.308216
519.000000	0.311288
520.000000	0.317965
521.000000	0.319774
522.000000	0.323871
523.000000	0.328981
524.000000	0.335507
525.000000	0.332687
526.000000	0.342920
527.000000	0.345747
528.000000	0.347716
529.000000	0.355803
530.000000	0.356098
531.000000	0.358616
532.000000	0.364503
533.000000	0.365651
534.000000	0.365569
535.000000	0.370807
536.000000	0.374427
537.000000	0.376036
538.000000	0.388075
539.000000	0.387171
540.000000	0.389655
541.000000	0.392957
542.000000	0.397899
543.000000	0.401448
544.000000	0.403985
545.000000	0.408999
546.000000	0.414388
547.000000	0.418453
548.000000	0.424134
549.000000	0.427521
550.000000	0.429205
551.000000	0.436749
552.000000	0.446081
553.000000	0.451500
554.000000	0.454556
555.000000	0.457273
556.000000	0.467361
557.000000	0.477662
558.000000	0.486646
559.000000	0.491364
560.000000	0.499093
561.000000	0.504942
562.000000	0.506066
563.000000	0.510386
564.000000	0.516210
565.000000	0.520795
566.000000	0.534299
567.000000	0.536360
568.000000	0.540418
569.000000	0.547799
570.000000	0.554684
571.000000	0.563427
572.000000	0.573855
573.000000	0.574598
574.000000	0.579879
575.000000	0.589100
576.000000	0.601010
577.000000	0.606393
578.000000	0.612719
579.000000	0.618126
580.000000	0.627451
581.000000	0.633437
582.000000	0.642040
583.000000	0.653011
584.000000	0.658937
585.000000	0.673717
586.000000	0.679442
587.000000	0.688421
588.000000	0.689849
589.000000	0.689384
590.000000	0.698132
591.000000	0.710183
592.000000	0.710036
593.000000	0.714223
594.000000	0.724194
595.000000	0.726879
596.000000	0.731168
597.000000	0.739316
598.000000	0.736800
599.000000	0.742094
600.000000	0.750094
601.000000	0.747026
602.000000	0.755568
603.000000	0.763110
604.000000	0.761687
605.000000	0.755803
606.000000	0.754776
607.000000	0.752831
608.000000	0.753303
609.000000	0.751634
610.000000	0.748046
611.000000	0.746248
612.000000	0.739340
613.000000	0.747573
614.000000	0.744751
615.000000	0.739256
616.000000	0.744074
617.000000	0.744696
618.000000	0.750269
619.000000	0.743098
620.000000	0.742232
621.000000	0.728687
622.000000	0.724324
623.000000	0.724528
624.000000	0.713056
625.000000	0.708937
626.000000	0.701171
627.000000	0.693912
628.000000	0.691523
629.000000	0.683783
630.000000	0.676987
631.000000	0.661818
632.000000	0.652160
633.000000	0.646762
634.000000	0.638821
635.000000	0.629015
636.000000	0.617216
637.000000	0.611186
638.000000	0.604275
639.000000	0.595622
640.000000	0.584916
641.000000	0.581923
642.000000	0.566214
643.000000	0.553703
644.000000	0.547211
645.000000	0.539081
646.000000	0.527363
647.000000	0.518108
648.000000	0.505879
649.000000	0.501861
650.000000	0.487145
651.000000	0.483388
652.000000	0.468438
653.000000	0.459675
654.000000	0.452107
655.000000	0.442129
656.000000	0.433703
657.000000	0.425682
658.000000	0.411540
659.000000	0.406451
660.000000	0.405620
661.000000	0.386049
662.000000	0.383336
663.000000	0.368575
664.000000	0.361403
665.000000	0.353445
666.000000	0.348350
667.000000	0.342198
668.000000	0.330459
669.000000	0.317036
670.000000	0.318183
671.000000	0.312165
672.000000	0.295596
673.000000	0.291242
674.000000	0.286354
675.000000	0.276442
676.000000	0.274335
677.000000	0.262650
678.000000	0.254289
679.000000	0.249911
680.000000	0.245750
681.000000	0.236501
682.000000	0.232891
683.000000	0.226532
684.000000	0.218373
685.000000	0.213229
686.000000	0.209224
687.000000	0.206008
688.000000	0.200943
689.000000	0.186859
690.000000	0.184485
691.000000	0.184106
692.000000	0.176617
693.000000	0.168672
694.000000	0.169630
695.000000	0.160007
696.000000	0.154718
697.000000	0.151053
698.000000	0.146231
699.000000	0.148653
700.000000	0.141517
701.000000	0.137271
702.000000	0.135303
703.000000	0.132707
704.000000	0.124746
705.000000	0.122894
706.000000	0.118483
707.000000	0.111065
708.000000	0.107826
709.000000	0.107080
710.000000	0.106702
711.000000	0.100644
712.000000	0.098460
713.000000	0.097834
714.000000	0.094899
715.000000	0.090541
716.000000	0.088953
717.000000	0.087163
718.000000	0.082108
719.000000	0.080468
720.000000	0.076586
721.000000	0.074648
722.000000	0.069244
723.000000	0.069713
724.000000	0.069636
725.000000	0.068639
