#LICA Lamps Spectra Database
#Website 1: https://guaix.fis.ucm.es/lamps_spectra
#Website 2: http://carlostapia.es/lamparas/lamps.html
#Latest update: 2017/12/15
#Tester: Carlos Eugenio Tapia Ayuga
#Correct for Electrical Dark: Yes (JAZA2310)
#Correct for Detector Non-linearity: Yes (JAZA2310)
#Correct for Flux: Yes
#Start wavelength (nm): 300
#End wavelength (nm): 900
#Steps (nm):	1
#Locus: D65 sRGB Gamma 1 CIE1931
#XYZ coordinates: 0.7242	0.6832	0.1649
#xyY coordinates: 0.4606	0.4345	0.6832
#sRGB: 255	123	16
#CCT Lindbloom (K):	2870
#CCT McCamy (K):	2873
#CCT Hernández-Andrés (K):	2788
#Melatonin: 0.217
#Chlorophyll a: 0.109
#Chlorophyll b: 0.438
#Beta Carotene: 0.110
#Manufacturer: Unknown
#Luminance manufacturer: Unknown
#Other data:
#Begin Processed Spectral Data
W	S
475.000000	0.064783
476.000000	0.060901
477.000000	0.058319
478.000000	0.054670
479.000000	0.055727
480.000000	0.053452
481.000000	0.054449
482.000000	0.052667
483.000000	0.054633
484.000000	0.052970
485.000000	0.054217
486.000000	0.053603
487.000000	0.053985
488.000000	0.054416
489.000000	0.058139
490.000000	0.058064
491.000000	0.059498
492.000000	0.063191
493.000000	0.063736
494.000000	0.068892
495.000000	0.070072
496.000000	0.075985
497.000000	0.079471
498.000000	0.084698
499.000000	0.088261
500.000000	0.097105
501.000000	0.104644
502.000000	0.108993
503.000000	0.116726
504.000000	0.121680
505.000000	0.128258
506.000000	0.135776
507.000000	0.144841
508.000000	0.152459
509.000000	0.158292
510.000000	0.171295
511.000000	0.177032
512.000000	0.187988
513.000000	0.195474
514.000000	0.205058
515.000000	0.215414
516.000000	0.222654
517.000000	0.233335
518.000000	0.240864
519.000000	0.248322
520.000000	0.261584
521.000000	0.268648
522.000000	0.278261
523.000000	0.286119
524.000000	0.297495
525.000000	0.311602
526.000000	0.317131
527.000000	0.327952
528.000000	0.340507
529.000000	0.354682
530.000000	0.365948
531.000000	0.377405
532.000000	0.382768
533.000000	0.394460
534.000000	0.400730
535.000000	0.412999
536.000000	0.428045
537.000000	0.436897
538.000000	0.451277
539.000000	0.460314
540.000000	0.466094
541.000000	0.481241
542.000000	0.495263
543.000000	0.506781
544.000000	0.520046
545.000000	0.529638
546.000000	0.539100
547.000000	0.553880
548.000000	0.562821
549.000000	0.575529
550.000000	0.594108
551.000000	0.609846
552.000000	0.619629
553.000000	0.635519
554.000000	0.646402
555.000000	0.667593
556.000000	0.679194
557.000000	0.691739
558.000000	0.699022
559.000000	0.703279
560.000000	0.714469
561.000000	0.733531
562.000000	0.744156
563.000000	0.753720
564.000000	0.764876
565.000000	0.778054
566.000000	0.790497
567.000000	0.805782
568.000000	0.813137
569.000000	0.813590
570.000000	0.823935
571.000000	0.821830
572.000000	0.831230
573.000000	0.839728
574.000000	0.844516
575.000000	0.854396
576.000000	0.862443
577.000000	0.859911
578.000000	0.862159
579.000000	0.865747
580.000000	0.874619
581.000000	0.880789
582.000000	0.884227
583.000000	0.891463
584.000000	0.892729
585.000000	0.893563
586.000000	0.893127
587.000000	0.892529
588.000000	0.895302
589.000000	0.893265
590.000000	0.891598
591.000000	0.888801
592.000000	0.888833
593.000000	0.878908
594.000000	0.869199
595.000000	0.873423
596.000000	0.869561
597.000000	0.866537
598.000000	0.855870
599.000000	0.858935
600.000000	0.862344
601.000000	0.852196
602.000000	0.849901
603.000000	0.852635
604.000000	0.828807
605.000000	0.814032
606.000000	0.801927
607.000000	0.793842
608.000000	0.795191
609.000000	0.774401
610.000000	0.765487
611.000000	0.763513
612.000000	0.745656
613.000000	0.744172
614.000000	0.727998
615.000000	0.720016
616.000000	0.712053
617.000000	0.704661
618.000000	0.699497
619.000000	0.684557
620.000000	0.673030
621.000000	0.660236
622.000000	0.653056
623.000000	0.634229
624.000000	0.626805
625.000000	0.617548
626.000000	0.601838
627.000000	0.587236
628.000000	0.575986
629.000000	0.567659
630.000000	0.557489
631.000000	0.546874
632.000000	0.532312
633.000000	0.527698
634.000000	0.519167
635.000000	0.504522
636.000000	0.489418
637.000000	0.478366
638.000000	0.472540
639.000000	0.454987
640.000000	0.449685
641.000000	0.441295
642.000000	0.434683
643.000000	0.419209
644.000000	0.412196
645.000000	0.400154
646.000000	0.397408
647.000000	0.383296
648.000000	0.374071
649.000000	0.372693
650.000000	0.351803
651.000000	0.345198
652.000000	0.336749
653.000000	0.323544
654.000000	0.321956
655.000000	0.318180
656.000000	0.302655
657.000000	0.296614
658.000000	0.293305
659.000000	0.280948
660.000000	0.274709
661.000000	0.267494
662.000000	0.265076
663.000000	0.250632
664.000000	0.245000
665.000000	0.245080
666.000000	0.228419
667.000000	0.225149
668.000000	0.213969
669.000000	0.211208
670.000000	0.212533
671.000000	0.203033
672.000000	0.197002
673.000000	0.200089
674.000000	0.185614
675.000000	0.183644
676.000000	0.178644
677.000000	0.174111
678.000000	0.168556
679.000000	0.165891
680.000000	0.160780
681.000000	0.154639
682.000000	0.144486
683.000000	0.142650
684.000000	0.140305
685.000000	0.139157
686.000000	0.129591
687.000000	0.130933
688.000000	0.126278
689.000000	0.119621
690.000000	0.117097
691.000000	0.110407
692.000000	0.117916
693.000000	0.106722
694.000000	0.103069
695.000000	0.104308
696.000000	0.101475
697.000000	0.100123
698.000000	0.094080
699.000000	0.089368
700.000000	0.090779
701.000000	0.088523
702.000000	0.084725
703.000000	0.078982
704.000000	0.084474
705.000000	0.077856
706.000000	0.072193
707.000000	0.069691
708.000000	0.071014
709.000000	0.068720
710.000000	0.065566
711.000000	0.065068
712.000000	0.063040
713.000000	0.056926
714.000000	0.053691
715.000000	0.055811
716.000000	0.054763
717.000000	0.057015
718.000000	0.048694
719.000000	0.052807
720.000000	0.050382
721.000000	0.047087
722.000000	0.050829
723.000000	0.043776
724.000000	0.043535
725.000000	0.041034
