#LICA Lamps Spectra Database
#Website 1: https://guaix.fis.ucm.es/lamps_spectra
#Website 2: http://carlostapia.es/lamparas/lamps.html
#Latest update: 2017/12/15
#Tester: Carlos Eugenio Tapia Ayuga
#Correct for Electrical Dark: Yes (JAZA2310)
#Correct for Detector Non-linearity: Yes (JAZA2310)
#Correct for Flux: Yes
#Start wavelength (nm): 300
#End wavelength (nm): 900
#Steps (nm):	1
#Locus: D65 sRGB Gamma 1 CIE1931
#XYZ coordinates: 0.0107	0.0128	0.0218
#xyY coordinates: 0.2360	0.2825	0.0128
#sRGB: 1	4	5
#CCT Lindbloom (K):	24382
#CCT McCamy (K):	16213
#CCT Hernández-Andrés (K):	18973
#Melatonin: 1.418
#Chlorophyll a: 0.231
#Chlorophyll b: 1.077
#Beta Carotene: 0.238
#Manufacturer: Oriel
#Luminance manufacturer: Unknown
#Other data:
#Begin Processed Spectral Data
W	S
475.000000	0.121824
476.000000	0.000000
477.000000	0.000000
478.000000	0.000000
479.000000	0.172740
480.000000	0.000000
481.000000	0.179912
482.000000	0.159210
483.000000	0.106718
484.000000	0.000000
485.000000	0.061425
486.000000	0.000000
487.000000	0.009695
488.000000	0.040827
489.000000	0.000000
490.000000	0.091900
491.000000	0.000000
492.000000	0.000000
493.000000	0.000000
494.000000	0.064420
495.000000	0.000000
496.000000	0.000000
497.000000	0.000000
498.000000	0.284476
499.000000	0.183617
500.000000	0.121956
501.000000	0.000000
502.000000	0.039014
503.000000	0.000000
504.000000	0.000000
505.000000	0.271681
506.000000	0.001892
507.000000	0.175210
508.000000	0.000000
509.000000	0.023172
510.000000	0.000000
511.000000	0.000000
512.000000	0.136905
513.000000	0.000000
514.000000	0.055697
515.000000	0.056196
516.000000	0.000000
517.000000	0.258624
518.000000	0.000000
519.000000	0.000000
520.000000	0.091480
521.000000	0.196990
522.000000	0.000000
523.000000	0.028611
524.000000	0.017839
525.000000	0.054278
526.000000	0.000000
527.000000	0.074325
528.000000	0.000000
529.000000	0.000000
530.000000	0.000000
531.000000	0.000000
532.000000	0.036177
533.000000	0.000000
534.000000	0.067257
535.000000	0.000000
536.000000	0.000000
537.000000	0.000000
538.000000	0.000000
539.000000	0.000000
540.000000	0.256680
541.000000	0.134671
542.000000	0.050732
543.000000	0.002942
544.000000	0.159210
545.000000	1.287288
546.000000	29.999468
547.000000	25.122446
548.000000	9.486411
549.000000	3.146943
550.000000	0.649765
551.000000	0.129863
552.000000	0.024959
553.000000	0.192680
554.000000	0.000000
555.000000	0.000000
556.000000	0.022857
557.000000	0.115650
558.000000	0.139768
559.000000	0.083152
560.000000	0.105641
561.000000	0.000000
562.000000	0.000000
563.000000	0.000000
564.000000	0.107375
565.000000	0.000000
566.000000	0.110317
567.000000	0.000000
568.000000	0.000000
569.000000	0.106902
570.000000	0.108031
571.000000	0.020939
572.000000	0.000000
573.000000	0.000000
574.000000	0.000000
575.000000	0.000000
576.000000	0.000000
577.000000	3.202902
578.000000	2.336654
579.000000	4.548699
580.000000	2.869219
581.000000	1.103855
582.000000	0.393847
583.000000	0.000000
584.000000	0.029215
585.000000	0.000000
586.000000	0.000000
587.000000	0.000000
588.000000	0.026167
589.000000	0.349920
590.000000	0.000000
591.000000	0.000000
592.000000	0.000000
593.000000	0.000000
594.000000	0.000000
595.000000	0.168300
596.000000	0.192024
597.000000	0.002338
598.000000	0.126133
599.000000	0.000000
600.000000	0.000000
601.000000	0.000000
602.000000	0.166776
603.000000	0.000000
604.000000	0.061582
605.000000	0.000000
606.000000	0.000000
607.000000	0.000000
608.000000	0.000000
609.000000	0.072906
610.000000	0.000000
611.000000	0.297350
612.000000	0.000000
613.000000	0.159945
614.000000	0.000000
615.000000	0.002574
616.000000	0.000000
617.000000	0.000000
618.000000	0.000000
619.000000	0.145443
620.000000	0.000000
621.000000	0.030318
622.000000	0.000000
623.000000	0.175105
624.000000	0.000000
625.000000	0.000000
626.000000	0.000000
627.000000	0.000000
628.000000	0.000000
629.000000	0.000000
630.000000	0.000000
631.000000	0.000000
632.000000	0.000000
633.000000	0.072932
634.000000	0.076373
635.000000	0.068124
636.000000	0.000000
637.000000	0.000000
638.000000	0.000000
639.000000	0.000000
640.000000	0.000000
641.000000	0.000000
642.000000	0.000000
643.000000	0.297507
644.000000	0.023067
645.000000	0.000000
646.000000	0.000000
647.000000	0.000000
648.000000	0.000000
649.000000	0.189580
650.000000	0.000000
651.000000	0.019074
652.000000	0.000000
653.000000	0.000000
654.000000	0.000000
655.000000	0.000000
656.000000	0.147729
657.000000	0.213409
658.000000	0.000000
659.000000	0.066048
660.000000	0.000000
661.000000	0.135118
662.000000	0.000000
663.000000	0.643591
664.000000	0.000000
665.000000	0.192497
666.000000	0.000000
667.000000	0.151932
668.000000	0.040039
669.000000	0.184694
670.000000	0.000000
671.000000	0.000000
672.000000	0.190080
673.000000	0.281796
674.000000	0.000000
675.000000	0.000000
676.000000	0.000000
677.000000	0.011087
678.000000	0.000000
679.000000	0.000000
680.000000	0.172556
681.000000	0.212017
682.000000	0.555080
683.000000	0.044847
684.000000	0.116833
685.000000	0.000000
686.000000	0.015790
687.000000	0.000000
688.000000	0.000000
689.000000	0.000000
690.000000	0.000000
691.000000	0.000000
692.000000	0.000000
693.000000	0.383470
694.000000	0.000000
695.000000	0.000000
696.000000	0.017918
697.000000	0.000000
698.000000	0.766440
699.000000	0.060794
700.000000	0.000657
701.000000	0.421722
702.000000	0.000000
703.000000	0.000000
704.000000	0.470641
705.000000	0.000000
706.000000	0.000000
707.000000	0.000000
708.000000	0.000000
709.000000	0.000000
710.000000	0.043060
711.000000	0.177995
712.000000	0.000000
713.000000	0.050758
714.000000	0.211229
715.000000	0.000000
716.000000	0.954497
717.000000	0.000000
718.000000	0.000000
719.000000	0.192970
720.000000	0.000000
721.000000	0.000000
722.000000	0.000000
723.000000	0.856975
724.000000	0.119959
725.000000	0.000000
